Source,MIT-BIH Arrhythmia Database record 232 (APCs and long pauses) - PhysioNet - ODC-By 1.0
Start,1031.3 s
Lead,MLII
Unit,mV
Sample Rate,360 hertz

-0.115
-0.125
-0.125
-0.115
-0.115
-0.105
-0.080
-0.080
-0.080
-0.080
-0.085
-0.100
-0.110
-0.110
-0.110
-0.115
-0.090
-0.100
-0.080
-0.080
-0.090
-0.085
-0.100
-0.100
-0.110
-0.100
-0.090
-0.080
-0.080
-0.070
-0.075
-0.080
-0.085
-0.095
-0.095
-0.100
-0.100
-0.100
-0.100
-0.085
-0.090
-0.070
-0.065
-0.065
-0.055
-0.065
-0.065
-0.070
-0.090
-0.085
-0.095
-0.080
-0.065
-0.055
-0.055
-0.060
-0.065
-0.070
-0.070
-0.075
-0.080
-0.075
-0.075
-0.070
-0.070
-0.075
-0.065
-0.055
-0.065
-0.080
-0.085
-0.100
-0.115
-0.110
-0.115
-0.105
-0.110
-0.090
-0.070
-0.075
-0.070
-0.070
-0.085
-0.085
-0.100
-0.110
-0.105
-0.115
-0.110
-0.105
-0.095
-0.095
-0.100
-0.095
-0.085
-0.100
-0.105
-0.110
-0.095
-0.095
-0.110
-0.110
-0.105
-0.110
-0.105
-0.110
-0.120
-0.120
-0.140
-0.140
-0.145
-0.130
-0.125
-0.105
-0.105
-0.095
-0.100
-0.095
-0.120
-0.115
-0.135
-0.120
-0.130
-0.135
-0.125
-0.110
-0.105
-0.110
-0.100
-0.095
-0.095
-0.105
-0.120
-0.120
-0.125
-0.130
-0.110
-0.105
-0.095
-0.105
-0.105
-0.110
-0.125
-0.125
-0.130
-0.130
-0.125
-0.125
-0.120
-0.125
-0.105
-0.100
-0.095
-0.090
-0.095
-0.095
-0.105
-0.110
-0.110
-0.100
-0.100
-0.095
-0.100
-0.100
-0.110
-0.115
-0.105
-0.105
-0.100
-0.100
-0.095
-0.115
-0.095
-0.095
-0.095
-0.095
-0.100
-0.110
-0.110
-0.105
-0.125
-0.115
-0.120
-0.110
-0.095
-0.065
-0.070
-0.075
-0.080
-0.095
-0.110
-0.115
-0.130
-0.115
-0.110
-0.100
-0.085
-0.080
-0.075
-0.075
-0.080
-0.085
-0.085
-0.085
-0.080
-0.095
-0.080
-0.090
-0.095
-0.090
-0.085
-0.080
-0.085
-0.085
-0.090
-0.105
-0.100
-0.105
-0.100
-0.080
-0.085
-0.065
-0.065
-0.065
-0.075
-0.080
-0.095
-0.090
-0.100
-0.100
-0.085
-0.070
-0.055
-0.045
-0.015
-0.010
-0.005
0.000
-0.005
-0.020
-0.040
-0.030
-0.015
-0.015
0.005
0.020
0.020
0.005
0.005
-0.010
-0.015
-0.010
-0.020
-0.025
-0.030
-0.025
-0.030
-0.035
-0.035
-0.040
-0.040
-0.045
-0.030
-0.045
-0.055
-0.070
-0.080
-0.090
-0.085
-0.090
-0.095
-0.080
-0.090
-0.080
-0.100
-0.115
-0.110
-0.120
-0.115
-0.110
-0.110
-0.105
-0.100
-0.110
-0.110
-0.110
-0.110
-0.105
-0.105
-0.095
-0.095
-0.100
-0.100
-0.100
-0.100
-0.100
-0.105
-0.100
-0.095
-0.105
-0.115
-0.105
-0.110
-0.075
-0.060
-0.040
-0.010
0.020
0.055
0.120
0.190
0.285
0.405
0.555
0.700
0.805
0.835
0.765
0.575
0.295
0.005
-0.230
-0.375
-0.450
-0.465
-0.455
-0.415
-0.380
-0.345
-0.305
-0.300
-0.310
-0.335
-0.350
-0.365
-0.340
-0.305
-0.260
-0.235
-0.225
-0.225
-0.235
-0.235
-0.245
-0.240
-0.240
-0.230
-0.220
-0.215
-0.205
-0.185
-0.160
-0.130
-0.090
-0.080
-0.075
-0.065
-0.075
-0.085
-0.095
-0.090
-0.080
-0.070
-0.060
-0.050
-0.045
-0.045
-0.065
-0.060
-0.060
-0.085
-0.085
-0.090
-0.100
-0.095
-0.085
-0.060
-0.065
-0.045
-0.025
-0.025
-0.030
-0.055
-0.040
-0.040
-0.050
-0.035
-0.030
-0.035
-0.035
-0.030
-0.030
-0.020
-0.015
-0.010
-0.010
-0.005
-0.020
0.000
0.000
0.025
0.030
0.040
0.050
0.040
0.055
0.060
0.065
0.060
0.060
0.080
0.095
0.115
0.150
0.170
0.195
0.210
0.220
0.220
0.220
0.215
0.210
0.235
0.230
0.240
0.240
0.250
0.260
0.270
0.270
0.270
0.275
0.275
0.260
0.250
0.260
0.255
0.235
0.245
0.220
0.200
0.195
0.160
0.140
0.115
0.090
0.070
0.065
0.055
0.050
0.060
0.060
0.050
0.035
0.015
0.000
-0.040
-0.045
-0.060
-0.055
-0.050
-0.060
-0.050
-0.045
-0.060
-0.055
-0.055
-0.060
-0.060
-0.065
-0.080
-0.110
-0.100
-0.100
-0.100
-0.105
-0.110
-0.115
-0.125
-0.135
-0.140
-0.145
-0.150
-0.135
-0.110
-0.090
-0.085
-0.080
-0.070
-0.075
-0.080
-0.100
-0.090
-0.060
-0.050
-0.045
-0.035
-0.020
-0.030
-0.030
-0.030
-0.035
-0.050
-0.035
-0.020
-0.025
-0.035
-0.030
-0.040
-0.035
-0.030
-0.045
-0.035
-0.035
-0.025
-0.020
-0.015
-0.015
-0.010
-0.010
-0.010
-0.025
-0.020
-0.040
-0.015
-0.030
-0.035
-0.030
-0.040
-0.030
-0.045
-0.045
-0.025
-0.030
-0.015
-0.005
-0.010
-0.005
-0.005
-0.015
-0.020
-0.045
-0.035
-0.050
-0.045
-0.030
-0.025
-0.020
-0.020
-0.020
-0.030
-0.030
-0.045
-0.020
-0.015
-0.020
-0.005
-0.005
0.010
0.005
0.005
0.010
0.010
0.030
0.060
0.145
0.275
0.435
0.605
0.760
0.895
0.955
0.935
0.770
0.510
0.195
-0.095
-0.320
-0.430
-0.460
-0.420
-0.350
-0.295
-0.250
-0.250
-0.250
-0.280
-0.295
-0.295
-0.275
-0.230
-0.190
-0.165
-0.160
-0.180
-0.195
-0.210
-0.220
-0.235
-0.245
-0.225
-0.205
-0.185
-0.150
-0.110
-0.080
-0.040
-0.035
-0.030
-0.035
-0.045
-0.065
-0.070
-0.075
-0.080
-0.070
-0.070
-0.065
-0.055
-0.060
-0.065
-0.050
-0.060
-0.050
-0.050
-0.035
-0.035
-0.030
-0.025
-0.025
-0.020
-0.020
-0.020
-0.020
-0.050
-0.035
-0.045
-0.045
-0.035
-0.030
-0.015
-0.010
0.005
0.015
0.020
0.005
0.010
0.005
-0.010
-0.015
-0.015
0.005
0.015
0.030
0.035
0.055
0.065
0.075
0.085
0.090
0.095
0.130
0.140
0.145
0.140
0.160
0.190
0.195
0.205
0.220
0.215
0.220
0.215
0.235
0.245
0.255
0.280
0.295
0.300
0.300
0.290
0.295
0.290
0.280
0.265
0.250
0.230
0.200
0.210
0.195
0.190
0.185
0.175
0.165
0.145
0.120
0.100
0.085
0.065
0.040
0.035
0.030
0.020
0.015
0.005
-0.015
-0.035
-0.045
-0.070
-0.065
-0.070
-0.065
-0.055
-0.050
-0.045
-0.055
-0.060
-0.070
-0.065
-0.075
-0.085
-0.095
-0.105
-0.100
-0.100
-0.110
-0.095
-0.080
-0.080
-0.085
-0.080
-0.070
-0.080
-0.085
-0.100
-0.095
-0.080
-0.070
-0.065
-0.070
-0.070
-0.075
-0.085
-0.090
-0.100
-0.105
-0.110
-0.105
-0.100
-0.095
-0.100
-0.100
-0.105
-0.105
-0.105
-0.110
-0.110
-0.110
-0.105
-0.095
-0.090
-0.085
-0.075
-0.080
-0.080
-0.075
-0.075
-0.055
-0.050
-0.045
-0.045
-0.040
-0.040
-0.035
-0.045
-0.065
-0.070
-0.080
-0.090
-0.085
-0.090
-0.095
-0.095
-0.100
-0.095
-0.100
-0.080
-0.090
-0.090
-0.070
-0.075
-0.070
-0.075
-0.080
-0.080
-0.080
-0.090
-0.085
-0.080
-0.080
-0.085
-0.080
-0.100
-0.085
-0.080
-0.085
-0.095
-0.090
-0.085
-0.080
-0.075
-0.070
-0.070
-0.060
-0.065
-0.075
-0.080
-0.080
-0.085
-0.075
-0.070
-0.050
-0.035
-0.020
-0.025
-0.040
-0.045
-0.060
-0.070
-0.075
-0.065
-0.070
-0.060
-0.040
-0.020
0.015
0.030
0.070
0.135
0.210
0.305
0.425
0.535
0.655
0.740
0.765
0.715
0.570
0.305
0.030
-0.220
-0.385
-0.490
-0.500
-0.475
-0.445
-0.380
-0.335
-0.290
-0.270
-0.260
-0.285
-0.295
-0.320
-0.305
-0.310
-0.275
-0.230
-0.185
-0.195
-0.200
-0.220
-0.250
-0.255
-0.260
-0.250
-0.255
-0.220
-0.215
-0.180
-0.145
-0.110
-0.095
-0.090
-0.070
-0.070
-0.070
-0.065
-0.075
-0.085
-0.090
-0.090
-0.085
-0.070
-0.060
-0.060
-0.055
-0.060
-0.080
-0.080
-0.095
-0.090
-0.090
-0.075
-0.075
-0.070
-0.045
-0.050
-0.045
-0.045
-0.045
-0.045
-0.050
-0.050
-0.065
-0.045
-0.040
-0.040
-0.030
-0.035
-0.020
-0.025
-0.020
-0.020
-0.020
-0.005
0.010
0.025
0.045
0.060
0.065
0.070
0.070
0.085
0.080
0.075
0.095
0.105
0.115
0.120
0.145
0.165
0.165
0.190
0.205
0.215
0.195
0.195
0.205
0.210
0.195
0.210
0.220
0.225
0.240
0.225
0.205
0.200
0.195
0.175
0.165
0.150
0.140
0.125
0.105
0.095
0.085
0.070
0.055
0.040
0.015
0.000
-0.010
-0.035
-0.035
-0.035
-0.025
-0.010
-0.020
-0.030
-0.035
-0.050
-0.060
-0.080
-0.090
-0.105
-0.105
-0.105
-0.090
-0.080
-0.075
-0.085
-0.070
-0.080
-0.085
-0.090
-0.090
-0.070
-0.075
-0.075
-0.065
-0.075
-0.065
-0.080
-0.095
-0.095
-0.095
-0.115
-0.115
-0.115
-0.115
-0.115
-0.115
-0.110
-0.100
-0.095
-0.105
-0.115
-0.110
-0.115
-0.115
-0.125
-0.125
-0.120
-0.115
-0.100
-0.075
-0.065
-0.060
-0.030
-0.040
-0.025
-0.015
-0.025
-0.045
-0.060
-0.060
-0.070
-0.075
-0.075
-0.080
-0.090
-0.105
-0.105
-0.110
-0.110
-0.105
-0.085
-0.075
-0.085
-0.070
-0.060
-0.060
-0.055
-0.060
-0.075
-0.085
-0.090
-0.085
-0.085
-0.080
-0.055
-0.060
-0.050
-0.055
-0.060
-0.065
-0.060
-0.080
-0.090
-0.095
-0.095
-0.080
-0.065
-0.060
-0.050
-0.060
-0.055
-0.065
-0.070
-0.070
-0.070
-0.055
-0.065
-0.060
-0.065
-0.055
-0.065
-0.065
-0.060
-0.060
-0.060
-0.055
-0.050
-0.060
-0.040
-0.005
0.035
0.070
0.135
0.205
0.310
0.425
0.545
0.655
0.725
0.730
0.645
0.455
0.185
-0.070
-0.280
-0.410
-0.455
-0.450
-0.400
-0.365
-0.325
-0.280
-0.270
-0.260
-0.265
-0.290
-0.300
-0.280
-0.275
-0.235
-0.200
-0.185
-0.185
-0.190
-0.210
-0.215
-0.215
-0.215
-0.215
-0.200
-0.190
-0.205
-0.190
-0.175
-0.130
-0.110
-0.085
-0.055
-0.060
-0.055
-0.065
-0.070
-0.075
-0.065
-0.050
-0.050
-0.060
-0.060
-0.055
-0.065
-0.050
-0.050
-0.050
-0.055
-0.050
-0.055
-0.060
-0.060
-0.065
-0.055
-0.055
-0.040
-0.025
-0.020
-0.015
-0.010
-0.015
-0.015
-0.035
-0.035
-0.030
-0.035
-0.040
-0.040
-0.020
0.010
0.015
0.030
0.030
0.035
0.035
0.020
0.030
0.030
0.035
0.055
0.075
0.070
0.095
0.105
0.110
0.115
0.125
0.135
0.145
0.165
0.165
0.185
0.195
0.200
0.200
0.215
0.215
0.215
0.200
0.205
0.205
0.215
0.220
0.225
0.230
0.240
0.235
0.225
0.205
0.200
0.175
0.155
0.135
0.135
0.120
0.100
0.100
0.085
0.075
0.055
0.035
0.015
-0.005
-0.005
-0.020
-0.010
-0.020
-0.020
-0.025
-0.035
-0.040
-0.045
-0.055
-0.070
-0.075
-0.080
-0.090
-0.090
-0.100
-0.100
-0.090
-0.090
-0.080
-0.075
-0.085
-0.080
-0.080
-0.070
-0.080
-0.075
-0.085
-0.085
-0.090
-0.075
-0.080
-0.085
-0.085
-0.095
-0.105
-0.090
-0.095
-0.100
-0.100
-0.095
-0.095
-0.090
-0.090
-0.095
-0.110
-0.115
-0.115
-0.120
-0.125
-0.120
-0.120
-0.100
-0.090
-0.075
-0.070
-0.050
-0.050
-0.050
-0.045
-0.035
-0.040
-0.040
-0.050
-0.040
-0.045
-0.055
-0.060
-0.080
-0.080
-0.085
-0.085
-0.080
-0.065
-0.065
-0.070
-0.065
-0.070
-0.075
-0.070
-0.065
-0.075
-0.085
-0.090
-0.090
-0.080
-0.090
-0.090
-0.095
-0.090
-0.075
-0.065
-0.060
-0.055
-0.060
-0.075
-0.095
-0.100
-0.110
-0.105
-0.095
-0.090
-0.085
-0.080
-0.075
-0.070
-0.085
-0.080
-0.090
-0.085
-0.080
-0.080
-0.075
-0.075
-0.070
-0.080
-0.075
-0.080
-0.100
-0.105
-0.100
-0.085
-0.075
-0.055
-0.030
0.000
0.030
0.035
0.070
0.120
0.190
0.300
0.425
0.540
0.660
0.725
0.715
0.615
0.410
0.140
-0.115
-0.315
-0.435
-0.475
-0.470
-0.435
-0.385
-0.345
-0.305
-0.295
-0.295
-0.300
-0.315
-0.300
-0.280
-0.245
-0.210
-0.225
-0.220
-0.225
-0.240
-0.240
-0.235
-0.235
-0.220
-0.195
-0.180
-0.160
-0.130
-0.120
-0.100
-0.085
-0.075
-0.075
-0.065
-0.060
-0.055
-0.060
-0.065
-0.070
-0.085
-0.085
-0.090
-0.080
-0.075
-0.075
-0.060
-0.060
-0.060
-0.050
-0.045
-0.040
-0.045
-0.045
-0.050
-0.055
-0.055
-0.045
-0.040
-0.030
-0.045
-0.040
-0.050
-0.055
-0.055
-0.045
-0.045
-0.020
-0.010
0.020
0.030
0.040
0.040
0.035
0.040
0.025
0.025
0.025
0.045
0.035
0.065
0.080
0.100
0.115
0.140
0.150
0.160
0.170
0.165
0.170
0.185
0.185
0.205
0.215
0.215
0.225
0.225
0.220
0.225
0.225
0.225
0.210
0.220
0.215
0.225
0.220
0.210
0.205
0.185
0.160
0.130
0.120
0.100
0.085
0.075
0.055
0.040
0.030
0.025
0.015
0.005
0.010
0.000
-0.010
-0.025
-0.025
-0.045
-0.045
-0.055
-0.065
-0.075
-0.070
-0.085
-0.080
-0.090
-0.100
-0.115
-0.110
-0.115
-0.115
-0.100
-0.075
-0.065
-0.070
-0.065
-0.080
-0.075
-0.090
-0.100
-0.110
-0.110
-0.105
-0.115
-0.105
-0.095
-0.095
-0.100
-0.100
-0.110
-0.115
-0.125
-0.125
-0.120
-0.145
-0.130
-0.125
-0.120
-0.125
-0.135
-0.130
-0.125
-0.130
-0.135
-0.130
-0.120
-0.110
-0.090
-0.080
-0.070
-0.050
-0.055
-0.055
-0.070
-0.075
-0.085
-0.090
-0.095
-0.100
-0.095
-0.105
-0.100
-0.100
-0.080
-0.070
-0.080
-0.085
-0.095
-0.110
-0.115
-0.115
-0.125
-0.120
-0.100
-0.080
-0.095
-0.100
-0.110
-0.125
-0.130
-0.130
-0.120
-0.100
-0.095
-0.085
-0.080
-0.110
-0.110
-0.120
-0.135
-0.140
-0.140
-0.145
-0.145
-0.125
-0.120
-0.105
-0.100
-0.085
-0.090
-0.075
-0.085
-0.100
-0.100
-0.110
-0.100
-0.115
-0.095
-0.095
-0.080
-0.090
-0.090
-0.085
-0.085
-0.085
-0.075
-0.050
-0.030
-0.005
0.015
0.040
0.080
0.140
0.220
0.335
0.425
0.530
0.590
0.610
0.540
0.355
0.105
-0.150
-0.335
-0.450
-0.480
-0.460
-0.440
-0.415
-0.395
-0.370
-0.340
-0.340
-0.340
-0.335
-0.345
-0.335
-0.315
-0.285
-0.240
-0.220
-0.220
-0.240
-0.245
-0.255
-0.260
-0.255
-0.245
-0.235
-0.225
-0.205
-0.185
-0.175
-0.160
-0.135
-0.125
-0.115
-0.095
-0.080
-0.070
-0.075
-0.075
-0.080
-0.090
-0.110
-0.105
-0.105
-0.105
-0.100
-0.090
-0.100
-0.100
-0.100
-0.085
-0.085
-0.085
-0.085
-0.090
-0.075
-0.070
-0.085
-0.075
-0.070
-0.065
-0.055
-0.050
-0.055
-0.065
-0.085
-0.090
-0.080
-0.085
-0.060
-0.050
-0.015
-0.005
-0.005
-0.010
-0.005
-0.005
-0.005
0.000
0.005
0.015
0.010
0.030
0.040
0.030
0.065
0.070
0.080
0.085
0.110
0.120
0.120
0.120
0.125
0.140
0.145
0.160
0.150
0.170
0.175
0.175
0.180
0.185
0.175
0.180
0.190
0.195
0.200
0.200
0.185
0.170
0.145
0.135
0.110
0.095
0.075
0.060
0.055
0.045
0.030
0.025
0.010
0.010
-0.005
-0.010
-0.020
-0.035
-0.050
-0.065
-0.065
-0.080
-0.080
-0.075
-0.075
-0.065
-0.070
-0.080
-0.100
-0.105
-0.115
-0.130
-0.130
-0.115
-0.105
-0.100
-0.110
-0.100
-0.095
-0.095
-0.095
-0.105
-0.115
-0.110
-0.110
-0.100
-0.100
-0.095
-0.100
-0.095
-0.105
-0.100
-0.110
-0.115
-0.130
-0.130
-0.130
-0.130
-0.125
-0.125
-0.115
-0.125
-0.120
-0.125
-0.140
-0.150
-0.150
-0.150
-0.140
-0.140
-0.115
-0.105
-0.090
-0.090
-0.075
-0.080
-0.090
-0.085
-0.095
-0.100
-0.095
-0.095
-0.100
-0.105
-0.110
-0.120
-0.120
-0.115
-0.110
-0.100
-0.100
-0.105
-0.115
-0.125
-0.135
-0.125
-0.120
-0.115
-0.105
-0.095
-0.095
-0.100
-0.100
-0.105
-0.095
-0.095
-0.080
-0.080
-0.080
-0.085
-0.090
-0.100
-0.100
-0.110
-0.130
-0.110
-0.115
-0.110
-0.100
-0.105
-0.095
-0.100
-0.090
-0.085
-0.090
-0.085
-0.095
-0.080
-0.080
-0.085
-0.080
-0.065
-0.070
-0.080
-0.080
-0.095
-0.100
-0.105
-0.095
-0.100
-0.080
-0.065
-0.040
-0.025
-0.010
0.020
0.030
0.065
0.110
0.185
0.275
0.380
0.485
0.550
0.575
0.510
0.330
0.080
-0.165
-0.345
-0.445
-0.480
-0.460
-0.420
-0.390
-0.360
-0.315
-0.295
-0.275
-0.300
-0.325
-0.340
-0.335
-0.315
-0.270
-0.220
-0.195
-0.185
-0.185
-0.210
-0.220
-0.240
-0.240
-0.235
-0.235
-0.210
-0.195
-0.175
-0.160
-0.145
-0.100
-0.075
-0.065
-0.065
-0.050
-0.065
-0.080
-0.070
-0.090
-0.090
-0.080
-0.075
-0.080
-0.075
-0.070
-0.080
-0.070
-0.075
-0.085
-0.080
-0.085
-0.070
-0.075
-0.060
-0.050
-0.045
-0.035
-0.055
-0.055
-0.060
-0.065
-0.060
-0.065
-0.060
-0.070
-0.055
-0.055
-0.035
-0.025
-0.015
-0.020
-0.010
-0.010
-0.015
-0.020
-0.015
-0.010
-0.015
0.005
0.020
0.020
0.030
0.050
0.065
0.070
0.065
0.075
0.085
0.100
0.110
0.135
0.145
0.150
0.155
0.165
0.160
0.160
0.155
0.155
0.170
0.180
0.185
0.190
0.190
0.210
0.190
0.195
0.175
0.170
0.140
0.145
0.130
0.125
0.110
0.110
0.095
0.085
0.065
0.055
0.035
0.020
-0.015
-0.030
-0.035
-0.035
-0.045
-0.045
-0.035
-0.035
-0.045
-0.050
-0.060
-0.070
-0.070
-0.085
-0.090
-0.100
-0.105
-0.115
-0.080
-0.090
-0.085
-0.090
-0.105
-0.105
-0.120
-0.120
-0.110
-0.100
-0.090
-0.090
-0.090
-0.095
-0.090
-0.105
-0.105
-0.110
-0.120
-0.110
-0.120
-0.120
-0.110
-0.095
-0.095
-0.075
-0.070
-0.085
-0.095
-0.095
-0.095
-0.105
-0.095
-0.085
-0.075
-0.080
-0.070
-0.070
-0.090
-0.090
-0.090
-0.100
-0.105
-0.105
-0.090
-0.080
-0.070
-0.075
-0.065
-0.070
-0.080
-0.075
-0.095
-0.105
-0.125
-0.115
-0.110
-0.115
-0.110
-0.110
-0.080
-0.080
-0.090
-0.075
-0.090
-0.095
-0.105
-0.110
-0.105
-0.110
-0.105
-0.115
-0.100
-0.110
-0.120
-0.125
-0.120
-0.125
-0.120
-0.120
-0.110
-0.105
-0.100
-0.100
-0.100
-0.095
-0.110
-0.095
-0.105
-0.110
-0.110
-0.125
-0.115
-0.125
-0.110
-0.105
-0.095
-0.085
-0.090
-0.100
-0.105
-0.120
-0.105
-0.105
-0.105
-0.110
-0.110
-0.115
-0.105
-0.090
-0.100
-0.105
-0.095
-0.090
-0.105
-0.095
-0.110
-0.115
-0.115
-0.115
-0.105
-0.115
-0.115
-0.105
-0.120
-0.135
-0.160
-0.150
-0.155
-0.135
-0.130
-0.115
-0.100
-0.090
-0.095
-0.105
-0.125
-0.125
-0.140
-0.145
-0.150
-0.150
-0.150
-0.150
-0.140
-0.145
-0.145
-0.135
-0.135
-0.130
-0.145
-0.145
-0.155
-0.145
-0.150
-0.130
-0.120
-0.130
-0.135
-0.135
-0.140
-0.150
-0.155
-0.160
-0.170
-0.160
-0.140
-0.140
-0.145
-0.125
-0.140
-0.150
-0.160
-0.160
-0.185
-0.185
-0.190
-0.195
-0.170
-0.170
-0.155
-0.150
-0.130
-0.135
-0.150
-0.155
-0.170
-0.180
-0.170
-0.175
-0.160
-0.160
-0.145
-0.145
-0.155
-0.160
-0.165
-0.160
-0.150
-0.150
-0.145
-0.140
-0.130
-0.135
-0.115
-0.130
-0.125
-0.125
-0.135
-0.150
-0.140
-0.150
-0.150
-0.155
-0.135
-0.125
-0.135
-0.115
-0.110
-0.115
-0.110
-0.120
-0.145
-0.160
-0.155
-0.155
-0.160
-0.145
-0.135
-0.140
-0.140
-0.130
-0.135
-0.125
-0.115
-0.125
-0.135
-0.140
-0.145
-0.130
-0.120
-0.120
-0.125
-0.130
-0.140
-0.140
-0.150
-0.165
-0.145
-0.145
-0.140
-0.120
-0.110
-0.110
-0.125
-0.135
-0.145
-0.135
-0.145
-0.150
-0.140
-0.140
-0.140
-0.140
-0.135
-0.135
-0.130
-0.135
-0.130
-0.135
-0.150
-0.160
-0.140
-0.145
-0.155
-0.135
-0.130
-0.125
-0.135
-0.140
-0.135
-0.155
-0.175
-0.165
-0.160
-0.150
-0.135
-0.135
-0.130
-0.140
-0.130
-0.140
-0.145
-0.150
-0.165
-0.170
-0.165
-0.165
-0.155
-0.140
-0.140
-0.130
-0.120
-0.115
-0.115
-0.105
-0.110
-0.100
-0.105
-0.095
-0.080
-0.075
-0.065
-0.055
-0.070
-0.065
-0.075
-0.070
-0.070
-0.060
-0.050
-0.050
-0.040
-0.040
-0.050
-0.055
-0.090
-0.100
-0.090
-0.120
-0.105
-0.115
-0.115
-0.115
-0.090
-0.085
-0.080
-0.070
-0.075
-0.085
-0.095
-0.125
-0.135
-0.155
-0.165
-0.165
-0.170
-0.180
-0.185
-0.170
-0.180
-0.170
-0.165
-0.155
-0.155
-0.155
-0.160
-0.155
-0.150
-0.160
-0.150
-0.140
-0.160
-0.155
-0.175
-0.160
-0.175
-0.170
-0.175
-0.175
-0.175
-0.155
-0.145
-0.140
-0.135
-0.135
-0.140
-0.140
-0.140
-0.145
-0.145
-0.115
-0.095
-0.060
-0.005
0.065
0.145
0.265
0.370
0.495
0.585
0.630
0.585
0.415
0.155
-0.110
-0.320
-0.455
-0.495
-0.505
-0.495
-0.470
-0.450
-0.420
-0.395
-0.380
-0.370
-0.380
-0.390
-0.380
-0.370
-0.325
-0.285
-0.255
-0.255
-0.270
-0.305
-0.330
-0.340
-0.345
-0.340
-0.315
-0.300
-0.275
-0.240
-0.220
-0.200
-0.200
-0.190
-0.165
-0.170
-0.155
-0.155
-0.140
-0.145
-0.140
-0.145
-0.150
-0.150
-0.160
-0.155
-0.140
-0.135
-0.130
-0.120
-0.125
-0.125
-0.125
-0.130
-0.135
-0.150
-0.155
-0.150
-0.150
-0.150
-0.135
-0.125
-0.110
-0.085
-0.085
-0.085
-0.090
-0.095
-0.105
-0.110
-0.105
-0.100
-0.095
-0.090
-0.085
-0.090
-0.070
-0.060
-0.060
-0.060
-0.055
-0.040
-0.045
-0.010
-0.005
0.020
0.040
0.040
0.045
0.050
0.055
0.060
0.070
0.080
0.085
0.090
0.095
0.110
0.125
0.120
0.140
0.145
0.145
0.155
0.155
0.150
0.155
0.160
0.155
0.170
0.160
0.155
0.145
0.110
0.080
0.060
0.040
0.035
0.020
0.040
0.040
0.030
0.020
0.015
0.000
-0.020
-0.040
-0.060
-0.075
-0.100
-0.105
-0.120
-0.120
-0.105
-0.095
-0.100
-0.105
-0.100
-0.090
-0.115
-0.120
-0.130
-0.145
-0.150
-0.150
-0.145
-0.145
-0.160
-0.170
-0.175
-0.180
-0.180
-0.180
-0.175
-0.175
-0.165
-0.145
-0.135
-0.125
-0.140
-0.130
-0.140
-0.150
-0.145
-0.150
-0.130
-0.115
-0.100
-0.090
-0.070
-0.060
-0.075
-0.070
-0.090
-0.100
-0.105
-0.100
-0.095
-0.100
-0.100
-0.105
-0.095
-0.090
-0.105
-0.090
-0.100
-0.095
-0.095
-0.095
-0.090
-0.085
-0.090
-0.105
-0.095
-0.100
-0.095
-0.100
-0.110
-0.120
-0.115
-0.115
-0.120
-0.115
-0.105
-0.100
-0.100
-0.095
-0.110
-0.105
-0.115
-0.115
-0.125
-0.130
-0.135
-0.135
-0.120
-0.110
-0.085
-0.080
-0.080
-0.090
-0.095
-0.105
-0.110
-0.110
-0.125
-0.120
-0.100
-0.095
-0.070
-0.050
-0.040
-0.010
0.015
0.070
0.165
0.285
0.440
0.570
0.695
0.745
0.685
0.500
0.225
-0.080
-0.320
-0.485
-0.550
-0.540
-0.495
-0.445
-0.390
-0.345
-0.330
-0.320
-0.335
-0.355
-0.350
-0.320
-0.290
-0.275
-0.260
-0.270
-0.290
-0.280
-0.290
-0.275
-0.255
-0.230
-0.200
-0.160
-0.145
-0.130
-0.115
-0.110
-0.105
-0.105
-0.120
-0.115
-0.110
-0.110
-0.115
-0.105
-0.110
-0.115
-0.110
-0.115
-0.110
-0.105
-0.100
-0.100
-0.100
-0.090
-0.095
-0.110
-0.125
-0.125
-0.110
-0.105
-0.090
-0.075
-0.060
-0.060
-0.070
-0.070
-0.070
-0.090
-0.100
-0.100
-0.090
-0.070
-0.055
-0.050
-0.040
-0.030
-0.035
-0.025
-0.015
-0.005
-0.010
-0.005
0.015
0.015
0.035
0.045
0.050
0.065
0.075
0.080
0.090
0.100
0.105
0.120
0.120
0.130
0.150
0.165
0.190
0.185
0.190
0.190
0.180
0.175
0.160
0.150
0.160
0.155
0.150
0.140
0.130
0.125
0.115
0.100
0.100
0.080
0.065
0.035
0.020
-0.015
-0.030
-0.050
-0.065
-0.075
-0.080
-0.100
-0.105
-0.110
-0.120
-0.145
-0.135
-0.145
-0.135
-0.120
-0.125
-0.135
-0.135
-0.155
-0.160
-0.165
-0.185
-0.190
-0.200
-0.190
-0.195
-0.175
-0.160
-0.145
-0.155
-0.135
-0.140
-0.140
-0.140
-0.155
-0.165
-0.160
-0.165
-0.160
-0.150
-0.150
-0.150
-0.150
-0.155
-0.155
-0.160
-0.165
-0.155
-0.155
-0.165
-0.160
-0.150
-0.140
-0.150
-0.155
-0.180
-0.195
-0.210
-0.215
-0.215
-0.225
-0.215
-0.195
-0.180
-0.160
-0.160
-0.150
-0.155
-0.160
-0.165
-0.175
-0.180
-0.170
-0.150
-0.140
-0.120
-0.115
-0.130
-0.125
-0.155
-0.155
-0.165
-0.175
-0.165
-0.155
-0.130
-0.135
-0.135
-0.135
-0.145
-0.150
-0.160
-0.170
-0.175
-0.190
-0.170
-0.170
-0.160
-0.145
-0.115
-0.115
-0.135
-0.140
-0.145
-0.175
-0.175
-0.195
-0.190
-0.185
-0.175
-0.165
-0.175
-0.165
-0.155
-0.160
-0.160
-0.165
-0.170
-0.180
-0.180
-0.175
-0.180
-0.170
-0.165
-0.140
-0.160
-0.150
-0.165
-0.170
-0.170
-0.170
-0.150
-0.150
-0.125
-0.120
-0.090
-0.090
-0.070
-0.055
-0.050
-0.030
-0.005
0.055
0.140
0.240
0.350
0.470
0.565
0.615
0.570
0.440
0.190
-0.070
-0.300
-0.455
-0.510
-0.525
-0.495
-0.450
-0.415
-0.365
-0.355
-0.330
-0.350
-0.360
-0.365
-0.350
-0.330
-0.290
-0.260
-0.230
-0.225
-0.245
-0.255
-0.260
-0.295
-0.290
-0.300
-0.300
-0.290
-0.265
-0.245
-0.205
-0.175
-0.135
-0.130
-0.110
-0.110
-0.130
-0.130
-0.135
-0.150
-0.135
-0.135
-0.140
-0.130
-0.115
-0.110
-0.110
-0.110
-0.125
-0.135
-0.140
-0.145
-0.135
-0.130
-0.115
-0.100
-0.095
-0.100
-0.105
-0.105
-0.110
-0.105
-0.110
-0.105
-0.105
-0.090
-0.080
-0.075
-0.050
-0.065
-0.060
-0.065
-0.065
-0.065
-0.080
-0.070
-0.050
-0.030
-0.020
-0.010
0.005
0.015
0.020
0.025
0.040
0.045
0.065
0.065
0.075
0.090
0.110
0.115
0.120
0.120
0.130
0.125
0.120
0.120
0.120
0.135
0.145
0.160
0.185
0.180
0.180
0.175
0.165
0.140
0.140
0.105
0.100
0.075
0.070
0.050
0.040
0.030
0.025
0.005
0.000
0.005
0.010
0.000
-0.020
-0.020
-0.040
-0.080
-0.105
-0.145
-0.155
-0.145
-0.135
-0.130
-0.135
-0.140
-0.145
-0.145
-0.155
-0.135
-0.135
-0.130
-0.125
-0.135
-0.125
-0.140
-0.140
-0.135
-0.145
-0.150
-0.160
-0.150
-0.125
-0.115
-0.100
-0.100
-0.065
-0.050
-0.030
-0.025
-0.035
-0.035
-0.045
-0.040
-0.050
-0.055
-0.060
-0.090
-0.100
-0.130
-0.125
-0.130
-0.130
-0.115
-0.120
-0.120
-0.095
-0.095
-0.080
-0.095
-0.105
-0.110
-0.115
-0.125
-0.120
-0.145
-0.150
-0.170
-0.185
-0.180
-0.175
-0.185
-0.170
-0.175
-0.185
-0.195
-0.205
-0.205
-0.205
-0.220
-0.215
-0.225
-0.225
-0.235
-0.230
-0.235
-0.240
-0.225
-0.220
-0.215
-0.210
-0.205
-0.200
-0.205
-0.205
-0.210
-0.210
-0.220
-0.225
-0.220
-0.230
-0.215
-0.220
-0.210
-0.200
-0.200
-0.180
-0.175
-0.175
-0.165
-0.175
-0.185
-0.200
-0.200
-0.195
-0.195
-0.185
-0.200
-0.200
-0.200
-0.205
-0.195
-0.210
-0.190
-0.205
-0.200
-0.195
-0.185
-0.170
-0.160
-0.160
-0.160
-0.170
-0.165
-0.180
-0.170
-0.195
-0.195
-0.190
-0.190
-0.180
-0.190
-0.185
-0.180
-0.175
-0.180
-0.175
-0.175
-0.180
-0.185
-0.195
-0.185
-0.175
-0.165
-0.160
-0.165
-0.160
-0.175
-0.180
-0.175
-0.175
-0.160
-0.155
-0.135
-0.145
-0.160
-0.175
-0.195
-0.210
-0.205
-0.205
-0.195
-0.210
-0.210
-0.195
-0.185
-0.190
-0.165
-0.155
-0.150
-0.140
-0.160
-0.155
-0.160
-0.160
-0.155
-0.170
-0.170
-0.165
-0.185
-0.180
-0.180
-0.180
-0.160
-0.165
-0.160
-0.160
-0.165
-0.160
-0.165
-0.165
-0.165
-0.160
-0.160
-0.160
-0.175
-0.180
-0.190
-0.195
-0.195
-0.195
-0.180
-0.180
-0.165
-0.155
-0.150
-0.150
-0.145
-0.155
-0.155
-0.160
-0.160
-0.175
-0.185
-0.190
-0.180
-0.175
-0.145
-0.145
-0.145
-0.160
-0.180
-0.185
-0.185
-0.180
-0.180
-0.170
-0.160
-0.165
-0.170
-0.175
-0.190
-0.185
-0.200
-0.200
-0.185
-0.175
-0.175
-0.180
-0.165
-0.170
-0.180
-0.180
-0.195
-0.210
-0.210
-0.220
-0.210
-0.185
-0.155
-0.145
-0.150
-0.145
-0.165
-0.150
-0.165
-0.170
-0.165
-0.185
-0.215
-0.240
-0.245
-0.220
-0.205
-0.180
-0.170
-0.160
-0.155
-0.160
-0.160
-0.155
-0.150
-0.160
-0.160
-0.150
-0.160
-0.150
-0.160
-0.150
-0.150
-0.155
-0.170
-0.150
-0.155
-0.140
-0.135
-0.140
-0.135
-0.135
-0.150
-0.155
-0.170
-0.185
-0.200
-0.195
-0.195
-0.205
-0.185
-0.190
-0.180
-0.165
-0.160
-0.150
-0.160
-0.190
-0.195
-0.220
-0.230
-0.220
-0.205
-0.200
-0.180
-0.170
-0.175
-0.180
-0.180
-0.205
-0.190
-0.195
-0.195
-0.195
-0.195
-0.200
-0.190
-0.180
-0.185
-0.190
-0.225
-0.215
-0.225
-0.220
-0.210
-0.200
-0.200
-0.200
-0.200
-0.190
-0.185
-0.170
-0.190
-0.200
-0.225
-0.235
-0.225
-0.230
-0.220
-0.185
-0.175
-0.170
-0.185
-0.205
-0.230
-0.230
-0.225
-0.205
-0.190
-0.180
-0.190
-0.185
-0.180
-0.205
-0.200
-0.215
-0.205
-0.215
-0.210
-0.215
-0.215
-0.225
-0.220
-0.215
-0.210
-0.200
-0.195
-0.205
-0.200
-0.205
-0.220
-0.225
-0.205
-0.225
-0.230
-0.220
-0.210
-0.195
-0.195
-0.180
-0.170
-0.170
-0.155
-0.165
-0.190
-0.190
-0.195
-0.195
-0.190
-0.180
-0.175
-0.175
-0.175
-0.165
-0.160
-0.175
-0.170
-0.175
-0.195
-0.185
-0.175
-0.185
-0.185
-0.175
-0.170
-0.175
-0.195
-0.195
-0.195
-0.190
-0.175
-0.160
-0.145
-0.130
-0.140
-0.160
-0.160
-0.160
-0.165
-0.170
-0.180
-0.170
-0.170
-0.175
-0.155
-0.155
-0.155
-0.165
-0.150
-0.150
-0.140
-0.135
-0.125
-0.125
-0.125
-0.110
-0.110
-0.095
-0.075
-0.065
-0.055
-0.055
-0.070
-0.080
-0.080
-0.085
-0.085
-0.080
-0.105
-0.110
-0.115
-0.120
-0.120
-0.145
-0.130
-0.125
-0.135
-0.120
-0.110
-0.110
-0.120
-0.130
-0.140
-0.140
-0.145
-0.155
-0.170
-0.185
-0.185
-0.190
-0.195
-0.210
-0.200
-0.185
-0.170
-0.165
-0.165
-0.165
-0.165
-0.180
-0.180
-0.170
-0.160
-0.160
-0.170
-0.160
-0.165
-0.165
-0.175
-0.165
-0.165
-0.170
-0.165
-0.140
-0.140
-0.135
-0.130
-0.120
-0.135
-0.130
-0.160
-0.150
-0.145
-0.140
-0.110
-0.085
-0.025
0.055
0.170
0.315
0.470
0.640
0.750
0.830
0.815
0.700
0.470
0.175
-0.090
-0.310
-0.430
-0.470
-0.480
-0.460
-0.445
-0.420
-0.380
-0.370
-0.375
-0.380
-0.380
-0.390
-0.375
-0.340
-0.310
-0.280
-0.265
-0.270
-0.290
-0.305
-0.320
-0.330
-0.335
-0.315
-0.315
-0.270
-0.235
-0.205
-0.180
-0.160
-0.160
-0.175
-0.170
-0.160
-0.160
-0.155
-0.165
-0.155
-0.155
-0.155
-0.155
-0.155
-0.145
-0.145
-0.135
-0.125
-0.135
-0.120
-0.120
-0.130
-0.145
-0.155
-0.160
-0.160
-0.135
-0.140
-0.145
-0.140
-0.150
-0.125
-0.120
-0.110
-0.110
-0.120
-0.110
-0.120
-0.105
-0.095
-0.095
-0.090
-0.095
-0.090
-0.090
-0.080
-0.070
-0.050
-0.040
-0.030
-0.020
-0.020
-0.025
-0.020
-0.015
-0.005
0.010
0.020
0.020
0.040
0.055
0.060
0.080
0.085
0.090
0.100
0.110
0.120
0.120
0.130
0.135
0.125
0.120
0.130
0.130
0.130
0.125
0.120
0.125
0.135
0.140
0.150
0.150
0.140
0.135
0.110
0.075
0.050
0.025
0.025
0.010
0.000
0.005
0.005
-0.005
-0.025
-0.035
-0.050
-0.060
-0.070
-0.080
-0.080
-0.085
-0.095
-0.085
-0.080
-0.100
-0.115
-0.115
-0.125
-0.115
-0.115
-0.125
-0.135
-0.140
-0.140
-0.135
-0.140
-0.135
-0.145
-0.155
-0.160
-0.190
-0.160
-0.160
-0.160
-0.165
-0.160
-0.165
-0.150
-0.150
-0.160
-0.140
-0.130
-0.115
-0.100
-0.120
-0.110
-0.105
-0.100
-0.080
-0.075
-0.060
-0.070
-0.070
-0.080
-0.090
-0.090
-0.090
-0.090
-0.060
-0.040
-0.025
-0.025
-0.050
-0.065
-0.090
-0.125
-0.125
-0.135
-0.105
-0.090
-0.065
-0.070
-0.070
-0.095
-0.105
-0.110
-0.100
-0.085
-0.075
-0.065
-0.075
-0.060
-0.055
-0.065
-0.070
-0.065
-0.080
-0.090
-0.095
-0.110
-0.105
-0.095
-0.090
-0.090
-0.080
-0.070
-0.055
-0.055
-0.060
-0.085
-0.105
-0.105
-0.110
-0.110
-0.100
-0.105
-0.090
-0.080
-0.065
-0.050
-0.060
-0.060
-0.060
-0.055
-0.060
-0.065
-0.065
-0.050
-0.020
0.025
0.115
0.255
0.375
0.515
0.655
0.760
0.810
0.765
0.630
0.390
0.115
-0.140
-0.325
-0.405
-0.430
-0.435
-0.405
-0.370
-0.360
-0.330
-0.325
-0.330
-0.325
-0.325
-0.350
-0.325
-0.310
-0.280
-0.245
-0.220
-0.225
-0.225
-0.245
-0.255
-0.270
-0.245
-0.245
-0.240
-0.235
-0.225
-0.200
-0.170
-0.150
-0.130
-0.115
-0.090
-0.065
-0.060
-0.055
-0.065
-0.075
-0.085
-0.090
-0.090
-0.090
-0.085
-0.085
-0.090
-0.090
-0.095
-0.100
-0.085
-0.085
-0.070
-0.050
-0.020
-0.015
-0.030
-0.035
-0.065
-0.080
-0.090
-0.095
-0.085
-0.065
-0.045
-0.040
-0.025
-0.025
-0.030
-0.040
-0.035
-0.040
-0.015
-0.010
0.010
0.015
0.020
0.030
0.020
0.025
0.035
0.040
0.050
0.055
0.055
0.065
0.075
0.080
0.105
0.115
0.130
0.145
0.150
0.160
0.195
0.205
0.230
0.235
0.245
0.240
0.235
0.220
0.225
0.220
0.210
0.210
0.215
0.220
0.230
0.245
0.255
0.245
0.215
0.200
0.180
0.160
0.140
0.120
0.090
0.065
0.050
0.045
0.040
0.035
0.015
0.000
-0.020
-0.035
-0.040
-0.040
-0.035
-0.030
-0.040
-0.050
-0.065
-0.075
-0.095
-0.090
-0.100
-0.115
-0.120
-0.130
-0.130
-0.125
-0.135
-0.145
-0.135
-0.125
-0.110
-0.095
-0.085
-0.090
-0.090
-0.100
-0.110
-0.120
-0.120
-0.125
-0.105
-0.095
-0.095
-0.080
-0.090
-0.110
-0.115
-0.125
-0.130
-0.125
-0.115
-0.110
-0.075
-0.095
-0.090
-0.095
-0.120
-0.145
-0.160
-0.155
-0.155
-0.150
-0.150
-0.165
-0.150
-0.150
-0.150
-0.160
-0.145
-0.125
-0.120
-0.125
-0.115
-0.115
-0.105
-0.100
-0.085
-0.085
-0.075
-0.075
-0.090
-0.100
-0.120
-0.115
-0.115
-0.120
-0.115
-0.110
-0.100
-0.095
-0.100
-0.110
-0.115
-0.130
-0.125
-0.135
-0.145
-0.130
-0.115
-0.110
-0.090
-0.080
-0.090
-0.105
-0.100
-0.105
-0.110
-0.110
-0.110
-0.100
-0.095
-0.090
-0.075
-0.085
-0.090
-0.110
-0.120
-0.115
-0.115
-0.140
-0.145
-0.120
-0.105
-0.105
-0.085
-0.090
-0.090
-0.085
-0.095
-0.100
-0.110
-0.105
-0.110
-0.110
-0.110
-0.090
-0.090
-0.070
-0.060
-0.050
-0.050
-0.035
-0.015
0.025
0.110
0.215
0.340
0.505
0.650
0.760
0.800
0.755
0.570
0.280
-0.020
-0.275
-0.450
-0.525
-0.540
-0.500
-0.445
-0.390
-0.340
-0.325
-0.325
-0.350
-0.375
-0.400
-0.400
-0.360
-0.310
-0.265
-0.230
-0.240
-0.245
-0.270
-0.295
-0.285
-0.275
-0.275
-0.265
-0.250
-0.215
-0.190
-0.165
-0.130
-0.100
-0.095
-0.090
-0.090
-0.105
-0.110
-0.100
-0.090
-0.080
-0.065
-0.065
-0.075
-0.085
-0.090
-0.090
-0.110
-0.110
-0.095
-0.095
-0.075
-0.070
-0.090
-0.080
-0.090
-0.080
-0.080
-0.075
-0.060
-0.065
-0.060
-0.060
-0.055
-0.055
-0.055
-0.025
-0.020
-0.010
-0.010
-0.015
-0.010
-0.025
-0.025
-0.020
-0.010
-0.005
0.000
0.025
0.025
0.040
0.050
0.055
0.065
0.075
0.075
0.080
0.095
0.125
0.155
0.170
0.175
0.175
0.185
0.175
0.175
0.175
0.165
0.185
0.195
0.205
0.215
0.205
0.195
0.195
0.180
0.185
0.165
0.160
0.145
0.120
0.100
0.095
0.075
0.060
0.055
0.030
0.030
0.015
0.000
-0.010
-0.035
-0.050
-0.050
-0.070
-0.055
-0.060
-0.070
-0.085
-0.095
-0.100
-0.095
-0.100
-0.105
-0.105
-0.115
-0.115
-0.120
-0.115
-0.120
-0.120
-0.110
-0.105
-0.110
-0.110
-0.105
-0.120
-0.125
-0.115
-0.125
-0.125
-0.125
-0.120
-0.120
-0.130
-0.125
-0.145
-0.150
-0.140
-0.140
-0.130
-0.130
-0.115
-0.145
-0.140
-0.135
-0.145
-0.165
-0.160
-0.155
-0.150
-0.150
-0.140
-0.130
-0.120
-0.110
-0.095
-0.090
-0.085
-0.080
-0.100
-0.100
-0.090
-0.090
-0.080
-0.065
-0.085
-0.090
-0.110
-0.105
-0.115
-0.105
-0.105
-0.095
-0.095
-0.085
-0.100
-0.090
-0.095
-0.095
-0.100
-0.095
-0.090
-0.080
-0.085
-0.090
-0.095
-0.100
-0.110
-0.105
-0.110
-0.100
-0.085
-0.075
-0.075
-0.080
-0.095
-0.110
-0.115
-0.120
-0.115
-0.105
-0.100
-0.090
-0.100
-0.105
-0.105
-0.100
-0.105
-0.105
-0.100
-0.100
-0.090
-0.080
-0.070
-0.070
-0.070
-0.080
-0.090
-0.130
-0.125
-0.120
-0.110
-0.095
-0.060
-0.040
-0.035
-0.005
0.000
0.030
0.090
0.165
0.285
0.405
0.550
0.675
0.770
0.770
0.650
0.390
0.080
-0.205
-0.410
-0.515
-0.545
-0.520
-0.465
-0.390
-0.340
-0.295
-0.275
-0.280
-0.315
-0.345
-0.350
-0.325
-0.315
-0.270
-0.255
-0.230
-0.245
-0.255
-0.240
-0.250
-0.255
-0.240
-0.230
-0.200
-0.195
-0.185
-0.160
-0.135
-0.120
-0.085
-0.080
-0.070
-0.070
-0.075
-0.080
-0.085
-0.090
-0.080
-0.080
-0.080
-0.075
-0.075
-0.070
-0.065
-0.075
-0.075
-0.065
-0.090
-0.095
-0.105
-0.095
-0.085
-0.070
-0.050
-0.045
-0.040
-0.050
-0.050
-0.055
-0.065
-0.080
-0.075
-0.065
-0.050
-0.040
-0.040
-0.030
-0.035
-0.025
-0.030
-0.005
0.005
0.005
0.010
0.015
0.025
0.035
0.055
0.060
0.070
0.075
0.090
0.090
0.110
0.115
0.115
0.130
0.145
0.165
0.185
0.185
0.200
0.210
0.215
0.210
0.195
0.180
0.175
0.170
0.165
0.180
0.185
0.195
0.210
0.195
0.175
0.165
0.140
0.130
0.095
0.080
0.055
0.040
0.050
0.035
0.025
0.015
-0.005
-0.045
-0.055
-0.080
-0.085
-0.085
-0.075
-0.065
-0.065
-0.065
-0.075
-0.095
-0.100
-0.110
-0.115
-0.125
-0.125
-0.125
-0.120
-0.120
-0.105
-0.100
-0.105
-0.100
-0.095
-0.095
-0.115
-0.125
-0.135
-0.150
-0.155
-0.140
-0.135
-0.125
-0.110
-0.110
-0.100
-0.110
-0.105
-0.105
-0.100
-0.090
-0.090
-0.095
-0.090
-0.085
-0.090
-0.090
-0.100
-0.100
-0.095
-0.100
-0.095
-0.100
-0.105
-0.085
-0.080
-0.070
-0.070
-0.070
-0.060
-0.075
-0.085
-0.085
-0.100
-0.095
-0.105
-0.105
-0.090
-0.090
-0.100
-0.100
-0.105
-0.100
-0.095
-0.085
-0.090
-0.080
-0.090
-0.085
-0.085
-0.085
-0.075
-0.080
-0.080
-0.110
-0.120
-0.145
-0.150
-0.150
-0.150
-0.125
-0.115
-0.100
-0.100
-0.105
-0.115
-0.130
-0.135
-0.155
-0.150
-0.145
-0.135
-0.125
-0.135
-0.100
-0.095
-0.100
-0.105
-0.120
-0.110
-0.120
-0.125
-0.120
-0.135
-0.125
-0.125
-0.125
-0.120
-0.125
-0.110
-0.120
-0.125
-0.130
-0.145
-0.145
-0.130
-0.130
-0.110
-0.095
-0.100
-0.115
-0.115
-0.120
-0.120
-0.135
-0.130
-0.125
-0.130
-0.115
-0.110
-0.105
-0.105
-0.110
-0.115
-0.120
-0.125
-0.130
-0.135
-0.130
-0.120
-0.115
-0.100
-0.105
-0.110
-0.120
-0.120
-0.130
-0.125
-0.125
-0.130
-0.140
-0.130
-0.120
-0.120
-0.125
-0.115
-0.115
-0.115
-0.125
-0.125
-0.145
-0.165
-0.160
-0.150
-0.120
-0.120
-0.105
-0.100
-0.105
-0.125
-0.135
-0.145
-0.165
-0.175
-0.170
-0.170
-0.140
-0.125
-0.125
-0.135
-0.130
-0.125
-0.135
-0.140
-0.140
-0.155
-0.135
-0.145
-0.125
-0.130
-0.125
-0.120
-0.140
-0.125
-0.145
-0.155
-0.145
-0.165
-0.150
-0.150
-0.140
-0.135
-0.125
-0.125
-0.125
-0.125
-0.135
-0.140
-0.160
-0.145
-0.145
-0.135
-0.135
-0.120
-0.120
-0.130
-0.130
-0.135
-0.145
-0.130
-0.125
-0.125
-0.120
-0.120
-0.130
-0.125
-0.135
-0.135
-0.145
-0.150
-0.155
-0.150
-0.155
-0.150
-0.140
-0.140
-0.130
-0.125
-0.110
-0.110
-0.105
-0.100
-0.120
-0.140
-0.145
-0.165
-0.165
-0.165
-0.155
-0.165
-0.155
-0.140
-0.130
-0.125
-0.135
-0.135
-0.140
-0.130
-0.140
-0.135
-0.150
-0.150
-0.145
-0.155
-0.155
-0.140
-0.130
-0.130
-0.130
-0.140
-0.165
-0.165
-0.150
-0.150
-0.125
-0.120
-0.130
-0.130
-0.145
-0.155
-0.165
-0.170
-0.165
-0.180
-0.170
-0.160
-0.150
-0.140
-0.145
-0.145
-0.125
-0.140
-0.140
-0.150
-0.160
-0.160
-0.165
-0.160
-0.150
-0.150
-0.150
-0.145
-0.150
-0.160
-0.160
-0.165
-0.165
-0.170
-0.160
-0.165
-0.145
-0.135
-0.135
-0.145
-0.155
-0.175
-0.185
-0.190
-0.190
-0.185
-0.175
-0.165
-0.160
-0.160
-0.150
-0.155
-0.160
-0.160
-0.165
-0.165
-0.165
-0.170
-0.160
-0.155
-0.150
-0.155
-0.160
-0.160
-0.165
-0.170
-0.180
-0.175
-0.175
-0.180
-0.170
-0.160
-0.155
-0.150
-0.160
-0.155
-0.150
-0.155
-0.160
-0.160
-0.150
-0.165
-0.180
-0.180
-0.165
-0.160
-0.145
-0.135
-0.135
-0.145
-0.160
-0.185
-0.190
-0.200
-0.195
-0.185
-0.170
-0.160
-0.155
-0.150
-0.160
-0.180
-0.185
-0.205
-0.200
-0.180
-0.170
-0.155
-0.145
-0.165
-0.170
-0.165
-0.180
-0.175
-0.190
-0.175
-0.175
-0.180
-0.175
-0.175
-0.165
-0.155
-0.160
-0.165
-0.175
-0.185
-0.185
-0.200
-0.185
-0.180
-0.175
-0.175
-0.175
-0.180
-0.180
-0.165
-0.190
-0.190
-0.185
-0.195
-0.190
-0.185
-0.170
-0.155
-0.145
-0.145
-0.145
-0.145
-0.160
-0.195
-0.210
-0.220
-0.200
-0.200
-0.185
-0.180
-0.175
-0.165
-0.175
-0.170
-0.170
-0.185
-0.195
-0.195
-0.190
-0.185
-0.185
-0.175
-0.180
-0.175
-0.180
-0.185
-0.200
-0.195
-0.200
-0.185
-0.175
-0.165
-0.170
-0.160
-0.175
-0.200
-0.200
-0.210
-0.200
-0.195
-0.195
-0.195
-0.195
-0.190
-0.190
-0.175
-0.160
-0.145
-0.125
-0.105
-0.100
-0.095
-0.110
-0.125
-0.130
-0.130
-0.130
-0.120
-0.135
-0.140
-0.145
-0.155
-0.160
-0.140
-0.145
-0.155
-0.150
-0.150
-0.135
-0.130
-0.120
-0.120
-0.125
-0.140
-0.150
-0.145
-0.155
-0.175
-0.170
-0.175
-0.185
-0.200
-0.180
-0.185
-0.195
-0.200
-0.215
-0.215
-0.225
-0.230
-0.220
-0.215
-0.210
-0.190
-0.190
-0.190
-0.220
-0.225
-0.235
-0.240
-0.230
-0.220
-0.205
-0.195
-0.180
-0.185
-0.180
-0.190
-0.210
-0.215
-0.220
-0.220
-0.225
-0.230
-0.205
-0.185
-0.175
-0.140
-0.120
-0.080
-0.015
0.075
0.175
0.310
0.420
0.560
0.675
0.730
0.705
0.540
0.285
0.000
-0.265
-0.425
-0.525
-0.550
-0.545
-0.530
-0.505
-0.475
-0.435
-0.415
-0.410
-0.425
-0.445
-0.460
-0.460
-0.415
-0.390
-0.355
-0.340
-0.345
-0.340
-0.365
-0.375
-0.390
-0.395
-0.395
-0.380
-0.350
-0.330
-0.315
-0.295
-0.285
-0.255
-0.230
-0.220
-0.200
-0.200
-0.200
-0.215
-0.210
-0.215
-0.200
-0.200
-0.195
-0.180
-0.170
-0.170
-0.185
-0.195
-0.215
-0.205
-0.205
-0.210
-0.220
-0.205
-0.200
-0.195
-0.180
-0.185
-0.170
-0.170
-0.180
-0.185
-0.190
-0.180
-0.180
-0.170
-0.160
-0.155
-0.150
-0.145
-0.150
-0.160
-0.145
-0.165
-0.135
-0.135
-0.130
-0.120
-0.110
-0.100
-0.080
-0.075
-0.075
-0.065
-0.065
-0.060
-0.055
-0.045
-0.040
-0.040
-0.025
-0.005
0.010
0.030
0.050
0.045
0.065
0.055
0.055
0.040
0.030
0.035
0.045
0.055
0.065
0.070
0.070
0.075
0.080
0.060
0.075
0.065
0.070
0.065
0.065
0.045
0.035
0.035
0.020
-0.005
-0.005
-0.035
-0.060
-0.070
-0.090
-0.090
-0.105
-0.105
-0.095
-0.090
-0.100
-0.115
-0.120
-0.145
-0.160
-0.170
-0.195
-0.190
-0.185
-0.180
-0.170
-0.175
-0.180
-0.185
-0.195
-0.215
-0.220
-0.220
-0.235
-0.230
-0.235
-0.240
-0.250
-0.250
-0.250
-0.240
-0.240
-0.245
-0.250
-0.245
-0.250
-0.240
-0.240
-0.235
-0.225
-0.210
-0.190
-0.185
-0.185
-0.185
-0.190
-0.195
-0.200
-0.205
-0.190
-0.180
-0.185
-0.190
-0.185
-0.180
-0.195
-0.195
-0.175
-0.165
-0.165
-0.175
-0.190
-0.180
-0.170
-0.165
-0.150
-0.140
-0.130
-0.130
-0.150
-0.155
-0.175
-0.190
-0.190
-0.170
-0.165
-0.145
-0.145
-0.145
-0.165
-0.170
-0.180
-0.190
-0.185
-0.190
-0.185
-0.185
-0.175
-0.180
-0.170
-0.165
-0.180
-0.160
-0.160
-0.165
-0.170
-0.175
-0.175
-0.180
-0.180
-0.170
-0.165
-0.175
-0.180
-0.190
-0.190
-0.205
-0.205
-0.190
-0.190
-0.175
-0.165
-0.140
-0.130
-0.125
-0.090
-0.035
0.055
0.180
0.325
0.495
0.640
0.760
0.785
0.705
0.500
0.190
-0.120
-0.365
-0.510
-0.585
-0.590
-0.560
-0.525
-0.485
-0.455
-0.430
-0.415
-0.420
-0.420
-0.440
-0.445
-0.430
-0.415
-0.380
-0.375
-0.360
-0.360
-0.355
-0.355
-0.365
-0.350
-0.340
-0.320
-0.290
-0.260
-0.230
-0.210
-0.200
-0.185
-0.180
-0.190
-0.200
-0.220
-0.220
-0.220
-0.225
-0.220
-0.225
-0.215
-0.205
-0.195
-0.190
-0.185
-0.185
-0.175
-0.185
-0.205
-0.220
-0.225
-0.210
-0.180
-0.165
-0.155
-0.165
-0.170
-0.185
-0.180
-0.185
-0.190
-0.180
-0.180
-0.170
-0.175
-0.185
-0.160
-0.155
-0.140
-0.125
-0.120
-0.120
-0.115
-0.115
-0.115
-0.115
-0.095
-0.085
-0.080
-0.075
-0.070
-0.055
-0.050
-0.035
-0.020
-0.025
0.005
0.030
0.050
0.060
0.075
0.090
0.090
0.090
0.100
0.095
0.095
0.090
0.100
0.090
0.085
0.105
0.100
0.110
0.105
0.085
0.065
0.040
0.015
-0.020
-0.040
-0.055
-0.050
-0.060
-0.065
-0.070
-0.085
-0.110
-0.120
-0.145
-0.155
-0.170
-0.175
-0.180
-0.180
-0.200
-0.200
-0.210
-0.195
-0.205
-0.210
-0.220
-0.215
-0.220
-0.240
-0.240
-0.245
-0.245
-0.245
-0.225
-0.205
-0.200
-0.190
-0.200
-0.205
-0.215
-0.230
-0.230
-0.215
-0.210
-0.210
-0.205
-0.225
-0.225
-0.210
-0.195
-0.190
-0.195
-0.190
-0.205
-0.220
-0.225
-0.220
-0.215
-0.225
-0.235
-0.230
-0.255
-0.240
-0.255
-0.265
-0.255
-0.250
-0.235
-0.225
-0.215
-0.215
-0.230
-0.250
-0.255
-0.245
-0.245
-0.250
-0.240
-0.240
-0.230
-0.220
-0.225
-0.210
-0.205
-0.195
-0.195
-0.205
-0.215
-0.220
-0.220
-0.230
-0.225
-0.205
-0.200
-0.200
-0.200
-0.205
-0.225
-0.245
-0.260
-0.275
-0.265
-0.270
-0.230
-0.210
-0.190
-0.180
-0.180
-0.175
-0.190
-0.205
-0.225
-0.250
-0.260
-0.255
-0.230
-0.220
-0.215
-0.205
-0.215
-0.205
-0.210
-0.220
-0.225
-0.235
-0.225
-0.225
-0.210
-0.215
-0.215
-0.210
-0.220
-0.230
-0.240
-0.240
-0.250
-0.240
-0.225
-0.225
-0.215
-0.210
-0.195
-0.190
-0.190
-0.190
-0.190
-0.190
-0.190
-0.195
-0.200
-0.195
-0.160
-0.125
-0.070
0.010
0.110
0.245
0.375
0.495
0.595
0.645
0.620
0.495
0.275
0.000
-0.270
-0.455
-0.565
-0.625
-0.610
-0.570
-0.540
-0.495
-0.470
-0.430
-0.435
-0.430
-0.435
-0.435
-0.430
-0.410
-0.390
-0.375
-0.380
-0.385
-0.395
-0.405
-0.415
-0.410
-0.400
-0.385
-0.365
-0.355
-0.350
-0.335
-0.315
-0.290
-0.265
-0.255
-0.245
-0.240
-0.230
-0.245
-0.250
-0.250
-0.250
-0.250
-0.260
-0.265
-0.245
-0.240
-0.225
-0.215
-0.195
-0.190
-0.190
-0.215
-0.230
-0.235
-0.225
-0.240
-0.240
-0.240
-0.230
-0.235
-0.215
-0.215
-0.220
-0.205
-0.215
-0.205
-0.210
-0.205
-0.195
-0.200
-0.185
-0.185
-0.175
-0.165
-0.165
-0.170
-0.170
-0.160
-0.155
-0.150
-0.135
-0.110
-0.100
-0.065
-0.050
-0.040
-0.035
-0.040
-0.030
-0.030
-0.030
-0.020
-0.010
0.000
0.015
0.035
0.030
0.045
0.050
0.070
0.065
0.065
0.070
0.060
0.050
0.040
0.040
0.025
0.030
0.020
0.010
-0.005
-0.015
-0.045
-0.060
-0.095
-0.090
-0.115
-0.115
-0.135
-0.160
-0.155
-0.185
-0.185
-0.185
-0.190
-0.205
-0.200
-0.225
-0.230
-0.245
-0.235
-0.230
-0.225
-0.215
-0.215
-0.225
-0.235
-0.240
-0.260
-0.255
-0.260
-0.265
-0.255
-0.250
-0.245
-0.250
-0.250
-0.260
-0.270
-0.265
-0.265
-0.260
-0.255
-0.245
-0.230
-0.225
-0.215
-0.235
-0.235
-0.245
-0.265
-0.270
-0.290
-0.280
-0.270
-0.265
-0.270
-0.265
-0.270
-0.275
-0.270
-0.280
-0.270
-0.265
-0.275
-0.275
-0.270
-0.260
-0.240
-0.235
-0.225
-0.230
-0.235
-0.235
-0.225
-0.225
-0.235
-0.210
-0.195
-0.190
-0.215
-0.220
-0.230
-0.250
-0.255
-0.265
-0.255
-0.255
-0.265
-0.260
-0.255
-0.260
-0.250
-0.235
-0.215
-0.200
-0.200
-0.200
-0.205
-0.240
-0.240
-0.245
-0.235
-0.230
-0.225
-0.220
-0.225
-0.230
-0.220
-0.225
-0.225
-0.220
-0.225
-0.230
-0.220
-0.220
-0.215
-0.210
-0.215
-0.210
-0.215
-0.220
-0.220
-0.225
-0.235
-0.230
-0.220
-0.205
-0.190
-0.170
-0.165
-0.165
-0.175
-0.185
-0.190
-0.210
-0.215
-0.215
-0.190
-0.160
-0.115
-0.060
0.035
0.165
0.315
0.470
0.610
0.695
0.625
0.425
0.125
-0.180
-0.420
-0.560
-0.630
-0.630
-0.585
-0.535
-0.495
-0.460
-0.455
-0.450
-0.465
-0.460
-0.445
-0.420
-0.380
-0.345
-0.325
-0.345
-0.360
-0.375
-0.405
-0.415
-0.410
-0.385
-0.370
-0.355
-0.330
-0.315
-0.295
-0.280
-0.260
-0.245
-0.220
-0.205
-0.205
-0.200
-0.210
-0.215
-0.220
-0.210
-0.205
-0.205
-0.210
-0.210
-0.220
-0.215
-0.210
-0.200
-0.175
-0.155
-0.155
-0.160
-0.175
-0.195
-0.210
-0.220
-0.215
-0.210
-0.200
-0.190
-0.185
-0.165
-0.165
-0.165
-0.160
-0.155
-0.155
-0.150
-0.155
-0.145
-0.140
-0.135
-0.110
-0.100
-0.085
-0.085
-0.085
-0.100
-0.100
-0.100
-0.100
-0.080
-0.070
-0.045
-0.030
-0.020
0.005
0.015
0.035
0.020
0.035
0.040
0.040
0.050
0.045
0.050
0.055
0.075
0.085
0.090
0.100
0.100
0.090
0.085
0.085
0.075
0.065
0.070
0.050
0.045
0.035
0.015
0.005
-0.015
-0.030
-0.065
-0.090
-0.090
-0.105
-0.095
-0.110
-0.105
-0.115
-0.125
-0.140
-0.140
-0.165
-0.170
-0.190
-0.190
-0.205
-0.210
-0.210
-0.215
-0.220
-0.225
-0.220
-0.205
-0.210
-0.200
-0.205
-0.215
-0.225
-0.240
-0.240
-0.240
-0.230
-0.225
-0.225
-0.230
-0.240
-0.230
-0.240
-0.225
-0.215
-0.205
-0.195
-0.200
-0.190
-0.225
-0.240
-0.245
-0.245
-0.260
-0.260
-0.255
-0.260
-0.255
-0.255
-0.250
-0.250
-0.245
-0.250
-0.250
-0.255
-0.260
-0.270
-0.250
-0.255
-0.245
-0.245
-0.235
-0.235
-0.220
-0.240
-0.235
-0.225
-0.215
-0.210
-0.210
-0.205
-0.190
-0.175
-0.170
-0.170
-0.195
-0.195
-0.230
-0.230
-0.250
-0.245
-0.260
-0.265
-0.255
-0.250
-0.230
-0.230
-0.225
-0.205
-0.200
-0.200
-0.205
-0.225
-0.230
-0.235
-0.240
-0.230
-0.225
-0.215
-0.220
-0.230
-0.225
-0.225
-0.230
-0.230
-0.210
-0.205
-0.205
-0.210
-0.190
-0.185
-0.190
-0.205
-0.210
-0.220
-0.220
-0.220
-0.225
-0.205
-0.190
-0.180
-0.165
-0.155
-0.165
-0.185
-0.195
-0.200
-0.190
-0.200
-0.175
-0.150
-0.140
-0.110
-0.060
-0.010
0.080
0.195
0.340
0.490
0.615
0.705
0.700
0.580
0.330
0.045
-0.220
-0.430
-0.560
-0.615
-0.605
-0.575
-0.545
-0.500
-0.465
-0.445
-0.435
-0.430
-0.415
-0.405
-0.370
-0.335
-0.335
-0.330
-0.345
-0.365
-0.385
-0.395
-0.370
-0.360
-0.345
-0.305
-0.280
-0.250
-0.235
-0.215
-0.205
-0.195
-0.200
-0.205
-0.205
-0.210
-0.195
-0.200
-0.210
-0.210
-0.210
-0.215
-0.215
-0.200
-0.190
-0.180
-0.175
-0.170
-0.175
-0.175
-0.180
-0.190
-0.200
-0.195
-0.185
-0.185
-0.175
-0.175
-0.165
-0.175
-0.150
-0.145
-0.135
-0.135
-0.135
-0.135
-0.145
-0.155
-0.140
-0.135
-0.125
-0.120
-0.100
-0.100
-0.105
-0.105
-0.115
-0.100
-0.100
-0.090
-0.070
-0.035
-0.010
0.000
0.010
0.015
0.015
0.040
0.050
0.055
0.055
0.050
0.065
0.065
0.075
0.095
0.110
0.120
0.140
0.140
0.130
0.120
0.095
0.080
0.055
0.040
0.025
0.010
0.000
-0.005
-0.020
-0.030
-0.040
-0.055
-0.050
-0.065
-0.090
-0.095
-0.105
-0.115
-0.120
-0.130
-0.160
-0.175
-0.185
-0.205
-0.205
-0.210
-0.215
-0.205
-0.190
-0.190
-0.175
-0.165
-0.165
-0.180
-0.200
-0.215
-0.230
-0.240
-0.245
-0.235
-0.230
-0.225
-0.215
-0.210
-0.215
-0.205
-0.205
-0.200
-0.200
-0.200
-0.200
-0.200
-0.195
-0.195
-0.195
-0.205
-0.205
-0.220
-0.230
-0.240
-0.255
-0.260
-0.255
-0.250
-0.235
-0.235
-0.230
-0.225
-0.230
-0.215
-0.220
-0.235
-0.245
-0.255
-0.270
-0.260
-0.260
-0.250
-0.240
-0.235
-0.240
-0.220
-0.210
-0.195
-0.180
-0.180
-0.180
-0.170
-0.185
-0.175
-0.175
-0.185
-0.195
-0.205
-0.220
-0.210
-0.225
-0.235
-0.220
-0.220
-0.200
-0.195
-0.180
-0.190
-0.185
-0.185
-0.185
-0.190
-0.180
-0.185
-0.195
-0.205
-0.210
-0.225
-0.225
-0.220
-0.205
-0.195
-0.195
-0.200
-0.205
-0.215
-0.210
-0.205
-0.195
-0.200
-0.200
-0.185
-0.200
-0.200
-0.220
-0.220
-0.220
-0.225
-0.205
-0.200
-0.205
-0.200
-0.205
-0.190
-0.205
-0.195
-0.200
-0.195
-0.205
-0.205
-0.205
-0.205
-0.200
-0.200
-0.190
-0.175
-0.170
-0.135
-0.110
-0.080
-0.035
0.050
0.150
0.275
0.405
0.530
0.620
0.640
0.590
0.410
0.145
-0.145
-0.390
-0.540
-0.610
-0.630
-0.595
-0.570
-0.515
-0.475
-0.430
-0.405
-0.410
-0.425
-0.425
-0.435
-0.415
-0.390
-0.335
-0.315
-0.310
-0.310
-0.335
-0.355
-0.370
-0.370
-0.365
-0.350
-0.325
-0.310
-0.295
-0.265
-0.245
-0.210
-0.200
-0.185
-0.180
-0.185
-0.200
-0.220
-0.215
-0.230
-0.210
-0.185
-0.155
-0.150
-0.155
-0.160
-0.180
-0.200
-0.205
-0.215
-0.220
-0.190
-0.195
-0.185
-0.190
-0.175
-0.175
-0.170
-0.165
-0.160
-0.170
-0.170
-0.160
-0.160
-0.170
-0.170
-0.160
-0.150
-0.150
-0.145
-0.150
-0.140
-0.135
-0.130
-0.135
-0.105
-0.100
-0.070
-0.055
-0.045
-0.035
-0.025
-0.020
-0.010
-0.005
0.000
0.000
0.005
0.000
0.020
0.045
0.065
0.075
0.100
0.100
0.115
0.120
0.110
0.100
0.100
0.100
0.105
0.105
0.095
0.075
0.065
0.055
0.045
0.030
0.025
0.000
-0.020
-0.060
-0.075
-0.085
-0.095
-0.120
-0.135
-0.150
-0.160
-0.170
-0.195
-0.200
-0.205
-0.195
-0.190
-0.185
-0.180
-0.190
-0.200
-0.210
-0.220
-0.230
-0.225
-0.225
-0.230
-0.230
-0.230
-0.230
-0.230
-0.220
-0.220
-0.220
-0.205
-0.220
-0.230
-0.245
-0.250
-0.235
-0.230
-0.220
-0.195
-0.210
-0.210
-0.220
-0.220
-0.230
-0.235
-0.230
-0.230
-0.225
-0.220
-0.230
-0.240
-0.255
-0.245
-0.245
-0.250
-0.255
-0.260
-0.260
-0.245
-0.245
-0.245
-0.235
-0.240
-0.225
-0.235
-0.230
-0.230
-0.215
-0.210
-0.205
-0.190
-0.200
-0.200
-0.210
-0.205
-0.220
-0.230
-0.230
-0.235
-0.230
-0.225
-0.225
-0.230
-0.210
-0.220
-0.215
-0.210
-0.215
-0.195
-0.200
-0.205
-0.220
-0.230
-0.245
-0.250
-0.250
-0.230
-0.220
-0.210
-0.210
-0.210
-0.210
-0.225
-0.225
-0.220
-0.235
-0.230
-0.250
-0.230
-0.220
-0.220
-0.225
-0.220
-0.225
-0.225
-0.235
-0.230
-0.230
-0.225
-0.215
-0.195
-0.185
-0.185
-0.195
-0.200
-0.215
-0.215
-0.220
-0.225
-0.225
-0.230
-0.225
-0.210
-0.185
-0.165
-0.135
-0.110
-0.075
-0.030
0.040
0.120
0.250
0.370
0.480
0.555
0.560
0.465
0.240
-0.040
-0.305
-0.520
-0.645
-0.670
-0.645
-0.585
-0.530
-0.460
-0.425
-0.415
-0.435
-0.445
-0.460
-0.465
-0.450
-0.420
-0.375
-0.350
-0.335
-0.345
-0.350
-0.360
-0.370
-0.370
-0.370
-0.365
-0.370
-0.350
-0.330
-0.305
-0.270
-0.240
-0.220
-0.205
-0.220
-0.200
-0.200
-0.200
-0.200
-0.220
-0.230
-0.240
-0.230
-0.225
-0.210
-0.200
-0.215
-0.225
-0.225
-0.235
-0.235
-0.240
-0.240
-0.225
-0.215
-0.205
-0.185
-0.185
-0.185
-0.185
-0.190
-0.210
-0.200
-0.210
-0.210
-0.195
-0.190
-0.180
-0.175
-0.160
-0.160
-0.155
-0.160
-0.150
-0.150
-0.140
-0.130
-0.120
-0.105
-0.110
-0.095
-0.090
-0.075
-0.060
-0.065
-0.060
-0.060
-0.055
-0.060
-0.035
-0.015
0.010
0.045
0.055
0.075
0.080
0.080
0.090
0.080
0.070
0.065
0.060
0.060
0.080
0.085
0.090
0.080
0.080
0.085
0.070
0.055
0.020
0.000
-0.030
-0.045
-0.055
-0.055
-0.060
-0.070
-0.085
-0.110
-0.120
-0.155
-0.185
-0.200
-0.210
-0.210
-0.195
-0.185
-0.175
-0.175
-0.190
-0.205
-0.210
-0.220
-0.225
-0.245
-0.250
-0.245
-0.245
-0.245
-0.245
-0.245
-0.245
-0.245
-0.250
-0.270
-0.270
-0.275
-0.270
-0.275
-0.275
-0.275
-0.280
-0.280
-0.285
-0.280
-0.290
-0.295
-0.300
-0.295
-0.290
-0.280
-0.270
-0.250
-0.245
-0.245
-0.260
-0.265
-0.280
-0.300
-0.310
-0.330
-0.315
-0.310
-0.315
-0.295
-0.295
-0.305
-0.290
-0.295
-0.300
-0.290
-0.285
-0.285
-0.290
-0.280
-0.270
-0.250
-0.235
-0.230
-0.235
-0.240
-0.265
-0.270
-0.285
-0.275
-0.275
-0.275
-0.265
-0.250
-0.250
-0.245
-0.260
-0.275
-0.295
-0.315
-0.325
-0.325
-0.325
-0.310
-0.280
-0.265
-0.260
-0.250
-0.240
-0.260
-0.275
-0.275
-0.290
-0.290
-0.295
-0.280
-0.275
-0.250
-0.250
-0.260
-0.270
-0.275
-0.290
-0.285
-0.280
-0.260
-0.255
-0.240
-0.240
-0.235
-0.240
-0.250
-0.250
-0.265
-0.265
-0.270
-0.275
-0.270
-0.265
-0.260
-0.250
-0.240
-0.225
-0.225
-0.225
-0.225
-0.235
-0.235
-0.235
-0.220
-0.190
-0.175
-0.135
-0.085
0.000
0.105
0.250
0.415
0.570
0.670
0.705
0.620
0.400
0.110
-0.185
-0.410
-0.540
-0.600
-0.610
-0.585
-0.575
-0.555
-0.540
-0.515
-0.505
-0.490
-0.495
-0.480
-0.460
-0.435
-0.385
-0.365
-0.350
-0.355
-0.385
-0.410
-0.415
-0.420
-0.425
-0.395
-0.390
-0.360
-0.350
-0.330
-0.315
-0.285
-0.280
-0.250
-0.235
-0.220
-0.215
-0.205
-0.205
-0.205
-0.215
-0.220
-0.245
-0.260
-0.250
-0.260
-0.245
-0.235
-0.240
-0.225
-0.225
-0.220
-0.215
-0.205
-0.215
-0.220
-0.220
-0.240
-0.235
-0.205
-0.210
-0.210
-0.190
-0.195
-0.200
-0.205
-0.205
-0.210
-0.200
-0.185
-0.170
-0.155
-0.145
-0.125
-0.115
-0.130
-0.125
-0.130
-0.140
-0.150
-0.140
-0.130
-0.115
-0.085
-0.065
-0.065
-0.050
-0.020
-0.005
0.005
0.025
0.030
0.030
0.035
0.040
0.045
0.060
0.070
0.100
0.090
0.095
0.080
0.075
0.075
0.060
0.065
0.050
0.055
0.040
0.030
0.005
-0.010
-0.040
-0.055
-0.080
-0.090
-0.110
-0.110
-0.145
-0.155
-0.170
-0.165
-0.160
-0.160
-0.160
-0.175
-0.180
-0.200
-0.225
-0.245
-0.240
-0.245
-0.240
-0.240
-0.230
-0.225
-0.225
-0.245
-0.240
-0.240
-0.255
-0.265
-0.270
-0.265
-0.255
-0.255
-0.260
-0.270
-0.270
-0.260
-0.260
-0.260
-0.265
-0.270
-0.265
-0.275
-0.265
-0.255
-0.240
-0.240
-0.245
-0.240
-0.240
-0.240
-0.240
-0.250
-0.260
-0.255
-0.250
-0.240
-0.240
-0.250
-0.270
-0.295
-0.310
-0.310
-0.320
-0.310
-0.290
-0.260
-0.255
-0.250
-0.260
-0.260
-0.260
-0.265
-0.265
-0.270
-0.275
-0.265
-0.270
-0.245
-0.225
-0.205
-0.200
-0.195
-0.195
-0.200
-0.215
-0.230
-0.250
-0.255
-0.250
-0.250
-0.250
-0.245
-0.240
-0.245
-0.255
-0.245
-0.250
-0.255
-0.245
-0.240
-0.225
-0.215
-0.210
-0.210
-0.210
-0.235
-0.250
-0.255
-0.250
-0.255
-0.250
-0.255
-0.245
-0.250
-0.245
-0.230
-0.225
-0.230
-0.230
-0.225
-0.235
-0.240
-0.250
-0.250
-0.245
-0.245
-0.260
-0.240
-0.260
-0.250
-0.245
-0.245
-0.245
-0.230
-0.220
-0.230
-0.220
-0.225
-0.215
-0.200
-0.205
-0.205
-0.200
-0.205
-0.200
-0.190
-0.190
-0.165
-0.140
-0.095
-0.010
0.090
0.215
0.365
0.490
0.615
0.695
0.705
0.625
0.425
0.140
-0.150
-0.380
-0.545
-0.625
-0.655
-0.645
-0.605
-0.575
-0.530
-0.505
-0.475
-0.470
-0.480
-0.480
-0.475
-0.455
-0.415
-0.385
-0.360
-0.360
-0.380
-0.390
-0.410
-0.405
-0.405
-0.380
-0.360
-0.345
-0.315
-0.290
-0.270
-0.260
-0.240
-0.235
-0.235
-0.255
-0.245
-0.240
-0.235
-0.220
-0.210
-0.195
-0.210
-0.210
-0.215
-0.225
-0.220
-0.225
-0.230
-0.215
-0.200
-0.195
-0.205
-0.200
-0.220
-0.220
-0.235
-0.240
-0.235
-0.225
-0.205
-0.195
-0.170
-0.165
-0.155
-0.160
-0.160
-0.170
-0.170
-0.185
-0.185
-0.155
-0.160
-0.140
-0.130
-0.120
-0.100
-0.085
-0.070
-0.060
-0.060
-0.055
-0.070
-0.055
-0.045
-0.025
-0.010
0.020
0.035
0.035
0.030
0.045
0.060
0.070
0.095
0.090
0.100
0.100
0.100
0.110
0.100
0.100
0.090
0.075
0.065
0.055
0.035
0.020
0.020
-0.005
-0.005
-0.025
-0.035
-0.050
-0.070
-0.085
-0.115
-0.135
-0.160
-0.170
-0.180
-0.180
-0.185
-0.190
-0.200
-0.205
-0.210
-0.220
-0.215
-0.220
-0.235
-0.230
-0.240
-0.240
-0.230
-0.230
-0.235
-0.250
-0.250
-0.255
-0.260
-0.265
-0.275
-0.280
-0.265
-0.260
-0.245
-0.225
-0.220
-0.225
-0.230
-0.250
-0.265
-0.270
-0.290
-0.260
-0.260
-0.255
-0.255
-0.250
-0.255
-0.255
-0.255
-0.245
-0.250
-0.235
-0.230
-0.225
-0.235
-0.230
-0.225
-0.230
-0.240
-0.235
-0.230
-0.245
-0.260
-0.255
-0.275
-0.270
-0.255
-0.245
-0.225
-0.215
-0.215
-0.220
-0.225
-0.245
-0.250
-0.260
-0.270
-0.265
-0.250
-0.250
-0.240
-0.230
-0.245
-0.240
-0.245
-0.265
-0.265
-0.265
-0.250
-0.245
-0.245
-0.235
-0.245
-0.235
-0.240
-0.245
-0.245
-0.250
-0.250
-0.255
-0.270
-0.270
-0.255
-0.255
-0.250
-0.240
-0.225
-0.230
-0.235
-0.220
-0.235
-0.250
-0.255
-0.265
-0.280
-0.265
-0.260
-0.245
-0.250
-0.255
-0.255
-0.250
-0.255
-0.265
-0.260
-0.245
-0.240
-0.225
-0.215
-0.200
-0.210
-0.220
-0.235
-0.250
-0.255
-0.265
-0.280
-0.275
-0.275
-0.265
-0.260
-0.245
-0.245
-0.230
-0.235
-0.225
-0.235
-0.230
-0.245
-0.245
-0.240
-0.255
-0.240
-0.240
-0.250
-0.245
-0.255
-0.250
-0.255
-0.265
-0.245
-0.250
-0.245
-0.245
-0.245
-0.240
-0.245
-0.250
-0.265
-0.280
-0.270
-0.265
-0.270
-0.260
-0.255
-0.255
-0.245
-0.230
-0.225
-0.235
-0.235
-0.240
-0.240
-0.250
-0.255
-0.255
-0.260
-0.260
-0.240
-0.240
-0.235
-0.240
-0.240
-0.250
-0.260
-0.265
-0.270
-0.265
-0.275
-0.255
-0.250
-0.245
-0.245
-0.235
-0.230
-0.235
-0.230
-0.250
-0.270
-0.270
-0.255
-0.240
-0.240
-0.235
-0.230
-0.225
-0.225
-0.225
-0.235
-0.240
-0.240
-0.245
-0.245
-0.245
-0.250
-0.260
-0.245
-0.250
-0.240
-0.250
-0.250
-0.260
-0.260
-0.260
-0.255
-0.240
-0.230
-0.225
-0.225
-0.235
-0.235
-0.245
-0.250
-0.230
-0.235
-0.245
-0.240
-0.245
-0.240
-0.230
-0.225
-0.215
-0.215
-0.210
-0.215
-0.220
-0.235
-0.230
-0.245
-0.245
-0.240
-0.245
-0.220
-0.225
-0.225
-0.230
-0.235
-0.240
-0.245
-0.235
-0.225
-0.225
-0.220
-0.195
-0.200
-0.205
-0.220
-0.230
-0.245
-0.260
-0.260
-0.250
-0.230
-0.230
-0.220
-0.215
-0.210
-0.210
-0.220
-0.220
-0.225
-0.220
-0.215
-0.215
-0.205
-0.220
-0.225
-0.220
-0.230
-0.230
-0.230
-0.230
-0.220
-0.225
-0.235
-0.235
-0.230
-0.220
-0.215
-0.200
-0.205
-0.210
-0.205
-0.220
-0.230
-0.240
-0.245
-0.240
-0.240
-0.230
-0.210
-0.200
-0.190
-0.200
-0.205
-0.220
-0.230
-0.230
-0.245
-0.225
-0.225
-0.220
-0.210
-0.215
-0.235
-0.230
-0.230
-0.230
-0.235
-0.225
-0.230
-0.220
-0.200
-0.200
-0.210
-0.190
-0.210
-0.215
-0.240
-0.245
-0.255
-0.250
-0.240
-0.235
-0.225
-0.215
-0.215
-0.210
-0.215
-0.215
-0.225
-0.210
-0.215
-0.220
-0.225
-0.220
-0.225
-0.225
-0.225
-0.220
-0.210
-0.210
-0.200
-0.210
-0.215
-0.210
-0.220
-0.230
-0.235
-0.225
-0.205
-0.200
-0.200
-0.190
-0.195
-0.200
-0.215
-0.230
-0.235
-0.230
-0.215
-0.200
-0.200
-0.195
-0.195
-0.200
-0.205
-0.225
-0.225
-0.220
-0.215
-0.225
-0.220
-0.220
-0.215
-0.205
-0.210
-0.205
-0.200
-0.205
-0.200
-0.185
-0.185
-0.190
-0.195
-0.210
-0.215
-0.200
-0.200
-0.210
-0.210
-0.220
-0.215
-0.220
-0.220
-0.205
-0.205
-0.185
-0.175
-0.170
-0.175
-0.180
-0.190
-0.215
-0.215
-0.220
-0.230
-0.225
-0.220
-0.215
-0.200
-0.185
-0.175
-0.175
-0.170
-0.180
-0.190
-0.205
-0.210
-0.225
-0.225
-0.220
-0.225
-0.225
-0.220
-0.220
-0.210
-0.200
-0.200
-0.195
-0.200
-0.205
-0.210
-0.225
-0.225
-0.225
-0.225
-0.215
-0.210
-0.215
-0.210
-0.220
-0.220
-0.220
-0.220
-0.210
-0.200
-0.190
-0.200
-0.195
-0.210
-0.215
-0.220
-0.215
-0.225
-0.230
-0.235
-0.235
-0.225
-0.205
-0.200
-0.205
-0.205
-0.210
-0.205
-0.210
-0.225
-0.220
-0.215
-0.210
-0.200
-0.195
-0.185
-0.195
-0.195
-0.205
-0.200
-0.205
-0.220
-0.225
-0.220
-0.220
-0.215
-0.195
-0.190
-0.190
-0.185
-0.195
-0.205
-0.215
-0.220
-0.220
-0.215
-0.210
-0.195
-0.195
-0.180
-0.190
-0.190
-0.195
-0.200
-0.210
-0.220
-0.220
-0.220
-0.190
-0.200
-0.180
-0.175
-0.185
-0.185
-0.200
-0.210
-0.220
-0.220
-0.215
-0.205
-0.190
-0.185
-0.160
-0.160
-0.165
-0.175
-0.185
-0.200
-0.195
-0.205
-0.205
-0.210
-0.210
-0.195
-0.180
-0.180
-0.185
-0.185
-0.180
-0.175
-0.185
-0.195
-0.200
-0.205
-0.195
-0.195
-0.190
-0.175
-0.165
-0.160
-0.160
-0.180
-0.195
-0.195
-0.205
-0.195
-0.190
-0.180
-0.170
-0.165
-0.185
-0.190
-0.200
-0.215
-0.220
-0.215
-0.220
-0.205
-0.190
-0.190
-0.170
-0.175
-0.165
-0.170
-0.170
-0.185
-0.190
-0.190
-0.205
-0.195
-0.185
-0.190
-0.185
-0.185
-0.190
-0.190
-0.200
-0.205
-0.190
-0.180
-0.185
-0.175
-0.180
-0.180
-0.165
-0.160
-0.165
-0.175
-0.195
-0.200
-0.205
-0.205
-0.215
-0.200
-0.170
-0.160
-0.160
-0.160
-0.160
-0.170
-0.175
-0.185
-0.195
-0.200
-0.195
-0.200
-0.195
-0.200
-0.185
-0.185
-0.185
-0.175
-0.170
-0.180
-0.165
-0.165
-0.185
-0.195
-0.205
-0.190
-0.185
-0.175
-0.170
-0.160
-0.175
-0.195
-0.195
-0.200
-0.195
-0.190
-0.175
-0.170
-0.160
-0.155
-0.150
-0.160
-0.155
-0.175
-0.165
-0.185
-0.190
-0.190
-0.205
-0.210
-0.190
-0.190
-0.195
-0.185
-0.170
-0.165
-0.170
-0.165
-0.190
-0.180
-0.185
-0.175
-0.170
-0.170
-0.175
-0.175
-0.180
-0.185
-0.190
-0.180
-0.170
-0.165
-0.155
-0.150
-0.155
-0.160
-0.170
-0.180
-0.190
-0.195
-0.190
-0.195
-0.195
-0.200
-0.195
-0.185
-0.170
-0.160
-0.160
-0.150
-0.160
-0.150
-0.170
-0.175
-0.170
-0.175
-0.160
-0.160
-0.155
-0.155
-0.175
-0.175
-0.175
-0.175
-0.180
-0.170
-0.165
-0.170
-0.165
-0.190
-0.185
-0.190
-0.200
-0.200
-0.185
-0.190
-0.195
-0.195
-0.190
-0.180
-0.185
-0.175
-0.160
-0.160
-0.140
-0.150
-0.145
-0.155
-0.160
-0.165
-0.175
-0.180
-0.170
-0.175
-0.165
-0.160
-0.160
-0.160
-0.165
-0.165
-0.170
-0.170
-0.170
-0.175
-0.165
-0.160
-0.150
-0.145
-0.155
-0.165
-0.175
-0.185
-0.190
-0.190
-0.180
-0.170
-0.165
-0.150
-0.155
-0.155
-0.150
-0.150
-0.150
-0.155
-0.150
-0.160
-0.155
-0.160
-0.165
-0.160
-0.150
-0.155
-0.160
-0.170
-0.175
-0.180
-0.180
-0.175
-0.170
-0.160
-0.150
-0.140
-0.125
-0.130
-0.150
-0.165
-0.180
-0.180
-0.195
-0.185
-0.190
-0.170
-0.160
-0.150
-0.140
-0.145
-0.135
-0.145
-0.145
-0.150
-0.155
-0.170
-0.170
-0.170
-0.155
-0.150
-0.145
-0.150
-0.155
-0.165
-0.175
-0.190
-0.180
-0.170
-0.155
-0.150
-0.130
-0.125
-0.130
-0.140
-0.140
-0.145
-0.160
-0.165
-0.165
-0.170
-0.165
-0.165
-0.165
-0.165
-0.165
-0.145
-0.125
-0.120
-0.115
-0.125
-0.140
-0.150
-0.155
-0.165
-0.160
-0.170
-0.150
-0.155
-0.160
-0.160
-0.165
-0.175
-0.165
-0.160
-0.155
-0.150
-0.140
-0.125
-0.130
-0.150
-0.165
-0.160
-0.175
-0.170
-0.170
-0.175
-0.155
-0.150
-0.140
-0.130
-0.130
-0.120
-0.120
-0.120
-0.125
-0.140
-0.140
-0.160
-0.150
-0.165
-0.150
-0.130
-0.120
-0.130
-0.145
-0.155
-0.155
-0.175
-0.165
-0.150
-0.145
-0.140
-0.120
-0.115
-0.115
-0.120
-0.125
-0.135
-0.140
-0.140
-0.145
-0.165
-0.145
-0.160
-0.160
-0.165
-0.140
-0.145
-0.150
-0.145
-0.135
-0.145
-0.135
-0.165
-0.155
-0.170
-0.145
-0.140
-0.125
-0.135
-0.135
-0.145
-0.155
-0.165
-0.160
-0.150
-0.145
-0.135
-0.130
-0.125
-0.125
-0.115
-0.120
-0.120
-0.135
-0.150
-0.170
-0.185
-0.180
-0.185
-0.175
-0.170
-0.145
-0.140
-0.140
-0.130
-0.140
-0.135
-0.135
-0.125
-0.125
-0.125
-0.130
-0.135
-0.125
-0.125
-0.135
-0.135
-0.145
-0.155
-0.160
-0.170
-0.160
-0.150
-0.140
-0.120
-0.100
-0.100
-0.130
-0.135
-0.165
-0.170
-0.165
-0.175
-0.160
-0.160
-0.140
-0.140
-0.140
-0.135
-0.145
-0.145
-0.150
-0.145
-0.140
-0.140
-0.145
-0.140
-0.145
-0.135
-0.130
-0.135
-0.145
-0.160
-0.170
-0.175
-0.175
-0.175
-0.165
-0.160
-0.150
-0.145
-0.140
-0.125
-0.125
-0.135
-0.145
-0.150
-0.160
-0.165
-0.180
-0.165
-0.150
-0.150
-0.135
-0.135
-0.145
-0.130
-0.140
-0.155
-0.160
-0.155
-0.155
-0.165
-0.150
-0.135
-0.135
-0.130
-0.135
-0.135
-0.140
-0.150
-0.155
-0.150
-0.150
-0.140
-0.140
-0.130
-0.130
-0.130
-0.145
-0.150
-0.150
-0.145
-0.155
-0.150
-0.140
-0.140
-0.140
-0.135
-0.125
-0.140
-0.130
-0.125
-0.130
-0.135
-0.145
-0.155
-0.145
-0.150
-0.150
-0.140
-0.110
-0.105
-0.110
-0.120
-0.135
-0.150
-0.150
-0.170
-0.175
-0.160
-0.155
-0.150
-0.135
-0.130
-0.125
-0.130
-0.140
-0.155
-0.165
-0.170
-0.170
-0.165
-0.150
-0.145
-0.135
-0.125
-0.135
-0.135
-0.145
-0.145
-0.150
-0.150
-0.145
-0.140
-0.135
-0.130
-0.120
-0.120
-0.115
-0.110
-0.125
-0.120
-0.140
-0.155
-0.165
-0.160
-0.155
-0.145
-0.125
-0.125
-0.120
-0.120
-0.130
-0.135
-0.140
-0.140
-0.145
-0.145
-0.145
-0.135
-0.135
-0.140
-0.115
-0.115
-0.115
-0.125
-0.130
-0.150
-0.140
-0.140
-0.135
-0.115
-0.110
-0.115
-0.120
-0.130
-0.145
-0.145
-0.150
-0.160
-0.160
-0.165
-0.155
-0.155
-0.135
-0.115
-0.105
-0.100
-0.100
-0.115
-0.140
-0.150
-0.145
-0.150
-0.145
-0.155
-0.135
-0.130
-0.135
-0.130
-0.135
-0.125
-0.120
-0.115
-0.115
-0.125
-0.125
-0.125
-0.130
-0.135
-0.155
-0.145
-0.145
-0.150
-0.150
-0.155
-0.145
-0.150
-0.120
-0.110
-0.105
-0.105
-0.105
-0.120
-0.135
-0.140
-0.145
-0.155
-0.155
-0.130
-0.125
-0.120
-0.120
-0.115
-0.120
-0.115
-0.130
-0.130
-0.130
-0.140
-0.125
-0.135
-0.135
-0.130
-0.115
-0.105
-0.110
-0.120
-0.130
-0.150
-0.170
-0.175
-0.180
-0.165
-0.150
-0.125
-0.100
-0.100
-0.110
-0.120
-0.130
-0.125
-0.135
-0.135
-0.135
-0.145
-0.135
-0.130
-0.135
-0.125
-0.110
-0.105
-0.120
-0.120
-0.125
-0.135
-0.135
-0.120
-0.120
-0.110
-0.110
-0.115
-0.125
-0.140
-0.135
-0.125
-0.140
-0.155
-0.140
-0.145
-0.135
-0.135
-0.115
-0.100
-0.110
-0.115
-0.135
-0.140
-0.150
-0.145
-0.140
-0.140
-0.130
-0.120
-0.110
-0.100
-0.105
-0.115
-0.120
-0.135
-0.140
-0.135
-0.120
-0.135
-0.120
-0.110
-0.105
-0.100
-0.100
-0.105
-0.115
-0.120
-0.125
-0.135
-0.135
-0.135
-0.130
-0.120
-0.105
-0.095
-0.090
-0.090
-0.105
-0.105
-0.110
-0.115
-0.125
-0.140
-0.135
-0.130
-0.125
-0.115
-0.120
-0.105
-0.110
-0.110
-0.120
-0.110
-0.105
-0.090
-0.100
-0.090
-0.095
-0.100
-0.105
-0.095
-0.100
-0.105
-0.110
-0.115
-0.125
-0.125
-0.110
-0.100
-0.080
-0.070
-0.080
-0.080
-0.100
-0.120
-0.130
-0.135
-0.125
-0.120
-0.110
-0.110
-0.105
-0.115
-0.110
-0.115
-0.110
-0.105
-0.105
-0.100
-0.095
-0.090
-0.100
-0.090
-0.085
-0.090
-0.115
-0.105
-0.115
-0.115
-0.105
-0.115
-0.110
-0.110
-0.115
-0.095
-0.085
-0.105
-0.100
-0.085
-0.105
-0.105
-0.135
-0.135
-0.120
-0.140
-0.120
-0.110
-0.095
-0.095
-0.100
-0.095
-0.105
-0.110
-0.105
-0.105
-0.100
-0.100
-0.105
-0.085
-0.075
-0.075
-0.075
-0.090
-0.100
-0.120
-0.125
-0.135
-0.125
-0.125
-0.115
-0.100
-0.090
-0.075
-0.090
-0.080
-0.090
-0.095
-0.105
-0.110
-0.110
-0.120
-0.120
-0.110
-0.105
-0.095
-0.090
-0.080
-0.070
-0.080
-0.075
-0.080
-0.080
-0.090
-0.085
-0.095
-0.085
-0.065
-0.075
-0.075
-0.085
-0.090
-0.100
-0.115
-0.110
-0.115
-0.110
-0.095
-0.080
-0.075
-0.080
-0.090
-0.095
-0.095
-0.110
-0.095
-0.090
-0.090
-0.085
-0.085
-0.100
-0.110
-0.105
-0.100
-0.090
-0.085
-0.095
-0.095
-0.085
-0.090
-0.090
-0.085
-0.080
-0.080
-0.080
-0.085
-0.095
-0.085
-0.090
-0.100
-0.095
-0.090
-0.095
-0.090
-0.085
-0.065
-0.065
-0.060
-0.065
-0.060
-0.075
-0.095
-0.115
-0.105
-0.085
-0.085
-0.075
-0.075
-0.080
-0.080
-0.095
-0.095
-0.090
-0.100
-0.090
-0.090
-0.085
-0.085
-0.085
-0.100
-0.105
-0.105
-0.110
-0.115
-0.120
-0.115
-0.105
-0.105
-0.100
-0.095
-0.080
-0.090
-0.095
-0.100
-0.105
-0.095
-0.095
-0.100
-0.100
-0.100
-0.090
-0.090
-0.090
-0.090
-0.110
-0.115
-0.095
-0.095
-0.085
-0.085
-0.085
-0.085
-0.090
-0.095
-0.080
-0.080
-0.085
-0.090
-0.100
-0.105
-0.105
-0.110
-0.110
-0.100
-0.095
-0.090
-0.070
-0.070
-0.075
-0.080
-0.100
-0.100
-0.105
-0.100
-0.100
-0.110
-0.100
-0.090
-0.085
-0.080
-0.095
-0.080
-0.095
-0.110
-0.120
-0.115
-0.115
-0.110
-0.095
-0.075
-0.070
-0.070
-0.090
-0.090
-0.095
-0.105
-0.115
-0.105
-0.110
-0.110
-0.100
-0.100
-0.090
-0.090
-0.085
-0.090
-0.090
-0.095
-0.085
-0.090
-0.095
-0.095
-0.085
-0.085
-0.065
-0.060
-0.075
-0.080
-0.090
-0.105
-0.110
-0.110
-0.115
-0.115
-0.110
-0.100
-0.100
-0.090
-0.080
-0.070
-0.060
-0.070
-0.075
-0.095
-0.100
-0.105
-0.105
-0.115
-0.110
-0.095
-0.090
-0.095
-0.095
-0.105
-0.105
-0.110
-0.100
-0.080
-0.070
-0.065
-0.065
-0.065
-0.095
-0.090
-0.100
-0.105
-0.100
-0.100
-0.090
-0.095
-0.085
-0.070
-0.065
-0.055
-0.060
-0.050
-0.060
-0.085
-0.085
-0.095
-0.100
-0.085
-0.085
-0.075
-0.070
-0.075
-0.075
-0.075
-0.065
-0.075
-0.070
-0.075
-0.070
-0.070
-0.060
-0.070
-0.070
-0.075
-0.070
-0.075
-0.080
-0.085
-0.090
-0.080
-0.085
-0.070
-0.045
-0.040
-0.025
-0.030
-0.050
-0.060
-0.075
-0.090
-0.090
-0.080
-0.095
-0.090
-0.085
-0.070
-0.065
-0.055
-0.060
-0.065
-0.045
-0.040
-0.055
-0.065
-0.075
-0.085
-0.100
-0.085
-0.075
-0.070
-0.070
-0.065
-0.060
-0.070
-0.075
-0.070
-0.075
-0.065
-0.055
-0.045
-0.035
-0.040
-0.055
-0.050
-0.045
-0.060
-0.065
-0.080
-0.075
-0.065
-0.080
-0.070
-0.075
-0.075
-0.080
-0.080
-0.080
-0.075
-0.065
-0.065
-0.050
-0.045
-0.050
-0.055
-0.040
-0.045
-0.050
-0.055
-0.070
-0.075
-0.085
-0.085
-0.065
-0.060
-0.060
-0.050
-0.055
-0.060
-0.070
-0.065
-0.060
-0.055
-0.050
-0.060
-0.065
-0.085
-0.070
-0.070
-0.065
-0.055
-0.060
-0.070
-0.075
-0.090
-0.105
-0.105
-0.095
-0.085
-0.055
-0.040
-0.045
-0.030
-0.025
-0.030
-0.050
-0.045
-0.070
-0.080
-0.070
-0.090
-0.075
-0.065
-0.050
-0.050
-0.040
-0.045
-0.055
-0.070
-0.070
-0.065
-0.065
-0.060
-0.045
-0.035
-0.035
-0.040
-0.050
-0.055
-0.070
-0.070
-0.075
-0.080
-0.070
-0.055
-0.055
-0.040
-0.030
-0.025
-0.020
-0.025
-0.050
-0.040
-0.055
-0.060
-0.060
-0.055
-0.060
-0.060
-0.050
-0.045
-0.045
-0.045
-0.045
-0.035
-0.045
-0.060
-0.045
-0.060
-0.050
-0.045
-0.040
-0.045
-0.030
-0.040
-0.050
-0.065
-0.065
-0.065
-0.060
-0.045
-0.050
-0.040
-0.035
-0.030
-0.035
-0.035
-0.035
-0.050
-0.050
-0.070
-0.055
-0.055
-0.040
-0.035
-0.035
-0.020
-0.025
-0.025
-0.025
-0.010
-0.005
-0.015
-0.030
-0.050
-0.055
-0.060
-0.055
-0.060
-0.055
-0.055
-0.060
-0.055
-0.065
-0.060
-0.050
-0.025
-0.015
-0.015
-0.005
-0.010
-0.020
-0.030
-0.050
-0.050
-0.060
-0.055
-0.035
-0.035
-0.020
-0.005
0.020
0.040
0.040
0.055
0.060
0.055
0.045
0.035
0.025
0.020
0.040
0.030
0.035
0.045
0.050
0.040
0.040
0.030
0.020
0.015
0.000
0.000
0.015
0.015
0.025
0.025
0.025
0.020
0.010
0.005
0.000
-0.005
-0.015
-0.005
-0.030
-0.030
-0.035
-0.025
-0.025
-0.030
-0.040
-0.040
-0.045
-0.040
-0.025
-0.020
-0.015
-0.015
-0.015
-0.010
-0.020
-0.025
-0.020
-0.020
-0.005
-0.010
-0.005
0.000
0.010
0.000
0.010
0.000
-0.015
-0.035
-0.040
-0.040
-0.045
-0.040
-0.020
0.015
0.045
0.095
0.155
0.230
0.320
0.430
0.560
0.685
0.780
0.805
0.750
0.590
0.330
0.075
-0.125
-0.260
-0.325
-0.350
-0.350
-0.335
-0.310
-0.270
-0.240
-0.240
-0.225
-0.240
-0.240
-0.230
-0.215
-0.195
-0.195
-0.185
-0.195
-0.205
-0.200
-0.215
-0.205
-0.190
-0.160
-0.145
-0.105
-0.095
-0.090
-0.065
-0.060
-0.070
-0.060
-0.065
-0.055
-0.050
-0.030
-0.015
-0.005
0.000
-0.005
-0.005
-0.015
-0.025
-0.025
-0.035
-0.025
-0.025
-0.030
-0.015
-0.040
-0.025
-0.030
-0.035
-0.025
-0.020
-0.005
0.000
0.005
0.015
0.020
0.030
0.030
0.025
0.010
0.020
0.015
0.015
0.020
0.035
0.040
0.050
0.055
0.085
0.085
0.085
0.085
0.080
0.080
0.085
0.090
0.090
0.105
0.110
0.125
0.150
0.155
0.165
0.170
0.170
0.175
0.170
0.195
0.190
0.220
0.235
0.260
0.270
0.270
0.280
0.285
0.290
0.285
0.280
0.285
0.295
0.300
0.300
0.300
0.315
0.310
0.315
0.315
0.300
0.300
0.295
0.285
0.275
0.255
0.245
0.245
0.235
0.215
0.205
0.190
0.180
0.160
0.150
0.145
0.150
0.140
0.145
0.130
0.130
0.125
0.110
0.100
0.085
0.070
0.060
0.070
0.070
0.060
0.065
0.080
0.080
0.080
0.075
0.075
0.085
0.075
0.070
0.065
0.060
0.065
0.070
0.090
0.085
0.080
0.075
0.075
0.065
0.045
0.060
0.055
0.065
0.065
0.065
0.065
0.080
0.095
0.085
0.080
0.070
0.070
0.070
0.050
0.065
0.050
0.060
0.065
0.070
0.065
0.075
0.080
0.085
0.080
0.080
0.065
0.055
0.060
0.070
0.065
0.075
0.060
0.070
0.080
0.060
0.065
0.060
0.065
0.060
0.080
0.070
0.085
0.090
0.080
0.075
0.055
0.050
0.050
0.035
0.035
0.045
0.055
0.045
0.060
0.065
0.080
0.075
0.065
0.060
0.045
0.040
0.035
0.035
0.055
0.055
0.055
0.055
0.055
0.050
0.050
0.045
0.035
0.030
0.045
0.045
0.060
0.070
0.075
0.075
0.080
0.075
0.065
0.060
0.055
0.040
0.050
0.045
0.055
0.055
0.060
0.070
0.065
0.065
0.060
0.065
0.055
0.065
0.070
0.060
0.065
0.065
0.040
0.040
0.040
0.035
0.050
0.050
0.050
0.050
0.045
0.055
0.050
0.070
0.075
0.090
0.070
0.060
0.055
0.050
0.045
0.040
0.045
0.035
0.055
0.065
0.065
0.070
0.060
0.065
0.055
0.060
0.050
0.060
0.050
0.050
0.040
0.050
0.075
0.060
0.060
0.050
0.040
0.035
0.045
0.055
0.065
0.065
0.060
0.065
0.055
0.055
0.055
0.060
0.060
0.050
0.035
0.040
0.045
0.035
0.040
0.060
0.065
0.055
0.070
0.070
0.070
0.070
0.075
0.060
0.045
0.040
0.030
0.045
0.060
0.080
0.075
0.095
0.100
0.105
0.110
0.095
0.095
0.100
0.125
0.135
0.130
0.140
0.160
0.165
0.150
0.145
0.135
0.130
0.140
0.140
0.160
0.165
0.165
0.160
0.135
0.120
0.105
0.100
0.095
0.085
0.105
0.095
0.105
0.115
0.115
0.115
0.095
0.075
0.060
0.040
0.030
0.015
0.020
0.020
0.025
0.020
0.045
0.050
0.040
0.055
0.050
0.050
0.045
0.050
0.050
0.060
0.065
0.055
0.060
0.055
0.045
0.060
0.040
0.020
0.015
0.020
0.035
0.025
0.030
0.030
0.045
0.060
0.060
0.080
0.080
0.100
0.110
0.115
0.145
0.185
0.255
0.335
0.445
0.560
0.660
0.765
0.795
0.745
0.620
0.405
0.170
-0.040
-0.180
-0.265
-0.280
-0.265
-0.245
-0.230
-0.200
-0.180
-0.175
-0.185
-0.190
-0.190
-0.185
-0.185
-0.140
-0.090
-0.060
-0.055
-0.055
-0.075
-0.100
-0.115
-0.115
-0.115
-0.100
-0.075
-0.060
-0.040
-0.040
-0.030
-0.005
0.020
0.040
0.045
0.055
0.065
0.050
0.070
0.060
0.070
0.065
0.045
0.045
0.030
0.045
0.035
0.030
0.050
0.060
0.065
0.085
0.095
0.080
0.105
0.095
0.085
0.070
0.075
0.055
0.065
0.075
0.085
0.080
0.085
0.085
0.080
0.080
0.080
0.075
0.090
0.090
0.115
0.130
0.120
0.135
0.135
0.135
0.135
0.150
0.155
0.155
0.150
0.155
0.160
0.160
0.180
0.195
0.210
0.220
0.235
0.235
0.255
0.255
0.265
0.270
0.285
0.290
0.300
0.300
0.300
0.295
0.295
0.295
0.295
0.295
0.320
0.320
0.340
0.350
0.360
0.365
0.355
0.350
0.340
0.325
0.315
0.300
0.270
0.265
0.260
0.255
0.245
0.245
0.245
0.230
0.225
0.215
0.190
0.165
0.135
0.115
0.095
0.095
0.095
0.105
0.105
0.105
0.100
0.095
0.080
0.065
0.055
0.055
0.055
0.060
0.055
0.065
0.070
0.060
0.050
0.045
0.035
0.025
0.010
-0.010
0.000
-0.005
0.005
0.000
0.005
0.010
0.020
0.020
0.025
0.025
0.020
0.025
0.020
0.025
0.030
0.035
0.045
0.045
0.060
0.070
0.080
0.070
0.085
0.090
0.085
0.070
0.065
0.065
0.065
0.070
0.080
0.070
0.060
0.050
0.040
0.030
0.035
0.035
0.045
0.070
0.080
0.095
0.115
0.100
0.095
0.105
0.085
0.070
0.070
0.075
0.085
0.090
0.090
0.070
0.070
0.065
0.060
0.055
0.055
0.050
0.055
0.050
0.065
0.065
0.075
0.075
0.080
0.065
0.070
0.065
0.060
0.060
0.050
0.045
0.030
0.040
0.050
0.050
0.060
0.085
0.075
0.075
0.055
0.045
0.035
0.040
0.060
0.070
0.085
0.080
0.100
0.140
0.200
0.290
0.405
0.550
0.685
0.805
0.845
0.820
0.680
0.425
0.145
-0.105
-0.250
-0.320
-0.325
-0.300
-0.250
-0.200
-0.155
-0.140
-0.130
-0.150
-0.165
-0.165
-0.170
-0.140
-0.115
-0.100
-0.100
-0.085
-0.100
-0.110
-0.115
-0.110
-0.115
-0.110
-0.095
-0.075
-0.050
-0.030
0.010
0.035
0.050
0.065
0.070
0.060
0.055
0.035
0.020
0.005
0.000
-0.005
0.015
0.030
0.045
0.065
0.075
0.070
0.055
0.045
0.035
0.020
0.015
0.020
0.025
0.030
0.030
0.025
0.030
0.030
0.040
0.045
0.055
0.050
0.055
0.065
0.070
0.070
0.090
0.090
0.100
0.095
0.095
0.095
0.080
0.085
0.075
0.085
0.095
0.115
0.130
0.145
0.165
0.170
0.195
0.200
0.205
0.205
0.205
0.210
0.215
0.225
0.240
0.250
0.270
0.280
0.305
0.310
0.315
0.325
0.320
0.315
0.315
0.310
0.320
0.320
0.330
0.330
0.330
0.315
0.290
0.280
0.265
0.250
0.225
0.225
0.230
0.225
0.230
0.200
0.165
0.135
0.095
0.075
0.070
0.060
0.050
0.035
0.025
0.015
0.015
0.010
0.010
0.005
0.015
0.005
0.000
-0.010
-0.025
-0.030
-0.030
-0.040
-0.020
-0.020
-0.015
-0.030
-0.050
-0.055
-0.065
-0.060
-0.055
-0.045
-0.040
-0.035
-0.025
-0.030
-0.030
-0.040
-0.060
-0.050
-0.055
-0.070
-0.065
-0.065
-0.060
-0.055
-0.050
-0.050
-0.055
-0.050
-0.055
-0.055
-0.070
-0.065
-0.070
-0.065
-0.070
-0.055
-0.065
-0.065
-0.075
-0.100
-0.105
-0.110
-0.120
-0.110
-0.095
-0.085
-0.080
-0.060
-0.050
-0.030
-0.005
-0.005
-0.015
-0.025
-0.045
-0.045
-0.050
-0.065
-0.060
-0.050
-0.035
-0.030
-0.045
-0.060
-0.060
-0.080
-0.070
-0.080
-0.080
-0.080
-0.060
-0.065
-0.045
-0.035
-0.020
-0.015
-0.010
-0.005
-0.020
-0.025
-0.030
-0.040
-0.045
-0.040
-0.045
-0.055
-0.075
-0.065
-0.080
-0.090
-0.085
-0.065
-0.065
-0.050
-0.040
-0.030
-0.035
-0.045
-0.040
-0.055
-0.055
-0.060
-0.055
-0.055
-0.060
-0.060
-0.050
-0.045
-0.040
-0.030
-0.020
-0.030
-0.025
-0.040
-0.045
-0.050
-0.050
-0.040
-0.025
-0.010
0.015
0.040
0.075
0.120
0.185
0.290
0.410
0.545
0.670
0.745
0.780
0.745
0.595
0.345
0.070
-0.160
-0.315
-0.425
-0.455
-0.430
-0.405
-0.360
-0.330
-0.290
-0.270
-0.290
-0.315
-0.315
-0.310
-0.310
-0.270
-0.225
-0.195
-0.170
-0.165
-0.190
-0.200
-0.225
-0.245
-0.255
-0.255
-0.240
-0.230
-0.225
-0.195
-0.155
-0.115
-0.085
-0.050
-0.045
-0.035
-0.045
-0.065
-0.080
-0.105
-0.105
-0.110
-0.100
-0.100
-0.080
-0.075
-0.070
-0.060
-0.070
-0.060
-0.070
-0.070
-0.065
-0.065
-0.055
-0.065
-0.050
-0.050
-0.070
-0.060
-0.065
-0.075
-0.080
-0.080
-0.080
-0.075
-0.050
-0.030
-0.030
-0.010
-0.015
-0.010
-0.020
-0.025
-0.025
-0.040
-0.045
-0.035
-0.020
-0.010
-0.005
0.020
0.015
0.020
0.035
0.045
0.055
0.060
0.075
0.080
0.095
0.105
0.120
0.135
0.145
0.145
0.145
0.155
0.150
0.140
0.145
0.160
0.175
0.190
0.195
0.210
0.215
0.220
0.205
0.190
0.180
0.160
0.150
0.130
0.115
0.110
0.095
0.090
0.080
0.070
0.055
0.040
0.015
0.000
-0.005
-0.025
-0.030
-0.045
-0.040
-0.050
-0.050
-0.060
-0.080
-0.095
-0.100
-0.100
-0.090
-0.085
-0.080
-0.085
-0.080
-0.095
-0.090
-0.100
-0.110
-0.120
-0.115
-0.125
-0.135
-0.125
-0.120
-0.110
-0.105
-0.100
-0.095
-0.090
-0.085
-0.100
-0.100
-0.105
-0.110
-0.120
-0.115
-0.130
-0.125
-0.130
-0.140
-0.145
-0.155
-0.145
-0.150
-0.150
-0.145
-0.140
-0.125
-0.120
-0.115
-0.115
-0.115
-0.105
-0.110
-0.105
-0.110
-0.110
-0.115
-0.100
-0.095
-0.085
-0.075
-0.075
-0.075
-0.085
-0.085
-0.100
-0.095
-0.105
-0.105
-0.115
-0.120
-0.125
-0.135
-0.120
-0.130
-0.125
-0.120
-0.115
-0.095
-0.105
-0.100
-0.105
-0.105
-0.120
-0.120
-0.095
-0.095
-0.105
-0.110
-0.125
-0.125
-0.130
-0.135
-0.145
-0.130
-0.125
-0.130
-0.105
-0.105
-0.105
-0.105
-0.090
-0.105
-0.125
-0.130
-0.140
-0.130
-0.135
-0.120
-0.105
-0.120
-0.110
-0.120
-0.120
-0.125
-0.125
-0.110
-0.090
-0.075
-0.065
-0.045
-0.030
0.005
0.035
0.110
0.210
0.335
0.455
0.585
0.640
0.605
0.465
0.240
-0.035
-0.260
-0.415
-0.495
-0.520
-0.520
-0.495
-0.445
-0.395
-0.355
-0.340
-0.340
-0.360
-0.370
-0.380
-0.365
-0.335
-0.280
-0.265
-0.240
-0.250
-0.255
-0.270
-0.280
-0.290
-0.290
-0.285
-0.275
-0.265
-0.255
-0.235
-0.200
-0.195
-0.165
-0.150
-0.130
-0.115
-0.120
-0.125
-0.130
-0.135
-0.145
-0.155
-0.165
-0.150
-0.150
-0.150
-0.140
-0.145
-0.145
-0.150
-0.160
-0.165
-0.160
-0.170
-0.150
-0.150
-0.155
-0.140
-0.120
-0.115
-0.110
-0.105
-0.115
-0.125
-0.130
-0.150
-0.150
-0.130
-0.115
-0.120
-0.105
-0.100
-0.115
-0.105
-0.095
-0.100
-0.080
-0.075
-0.065
-0.065
-0.060
-0.055
-0.035
-0.015
-0.015
0.005
0.000
0.015
0.015
0.015
0.040
0.050
0.060
0.085
0.095
0.090
0.095
0.100
0.095
0.085
0.085
0.090
0.085
0.075
0.085
0.095
0.095
0.100
0.100
0.095
0.085
0.070
0.065
0.050
0.030
0.020
0.010
-0.005
-0.015
-0.025
-0.035
-0.060
-0.085
-0.090
-0.110
-0.130
-0.130
-0.140
-0.130
-0.145
-0.145
-0.155
-0.155
-0.190
-0.205
-0.215
-0.225
-0.245
-0.255
-0.265
-0.240
-0.230
-0.215
-0.220
-0.230
-0.230
-0.230
-0.240
-0.245
-0.250
-0.245
-0.235
-0.230
-0.245
-0.245
-0.240
-0.245
-0.240
-0.260
-0.255
-0.255
-0.270
-0.260
-0.260
-0.255
-0.255
-0.245
-0.230
-0.240
-0.245
-0.270
-0.295
-0.295
-0.305
-0.320
-0.280
-0.270
-0.255
-0.260
-0.240
-0.245
-0.230
-0.230
-0.235
-0.245
-0.235
-0.225
-0.215
-0.200
-0.190
-0.185
-0.190
-0.195
-0.200
-0.220
-0.230
-0.245
-0.255
-0.255
-0.255
-0.240
-0.230
-0.220
-0.230
-0.250
-0.260
-0.265
-0.270
-0.250
-0.250
-0.230
-0.225
-0.225
-0.235
-0.260
-0.260
-0.250
-0.245
-0.240
-0.230
-0.235
-0.245
-0.245
-0.270
-0.265
-0.265
-0.255
-0.240
-0.245
-0.225
-0.235
-0.240
-0.245
-0.260
-0.260
-0.245
-0.240
-0.230
-0.220
-0.210
-0.215
-0.215
-0.220
-0.230
-0.235
-0.240
-0.245
-0.260
-0.245
-0.230
-0.220
-0.195
-0.180
-0.160
-0.120
-0.095
-0.045
0.025
0.145
0.255
0.380
0.470
0.520
0.505
0.375
0.145
-0.110
-0.360
-0.530
-0.625
-0.655
-0.625
-0.580
-0.520
-0.485
-0.455
-0.445
-0.455
-0.470
-0.495
-0.490
-0.455
-0.425
-0.390
-0.370
-0.355
-0.365
-0.375
-0.395
-0.405
-0.400
-0.415
-0.400
-0.395
-0.375
-0.335
-0.305
-0.275
-0.245
-0.240
-0.250
-0.250
-0.250
-0.250
-0.255
-0.245
-0.250
-0.245
-0.260
-0.260
-0.270
-0.260
-0.255
-0.240
-0.250
-0.245
-0.255
-0.260
-0.275
-0.260
-0.250
-0.230
-0.220
-0.220
-0.220
-0.220
-0.235
-0.250
-0.270
-0.275
-0.265
-0.250
-0.245
-0.220
-0.215
-0.200
-0.190
-0.190
-0.180
-0.165
-0.165
-0.165
-0.175
-0.175
-0.170
-0.160
-0.160
-0.150
-0.145
-0.125
-0.115
-0.100
-0.065
-0.040
-0.025
-0.015
-0.020
-0.020
-0.020
-0.025
-0.015
-0.020
-0.015
-0.015
0.000
0.000
-0.005
-0.015
-0.015
-0.010
-0.015
-0.005
-0.010
-0.020
-0.035
-0.050
-0.085
-0.110
-0.115
-0.125
-0.130
-0.135
-0.145
-0.155
-0.170
-0.195
-0.220
-0.235
-0.240
-0.245
-0.240
-0.245
-0.240
-0.250
-0.265
-0.270
-0.295
-0.300
-0.295
-0.305
-0.315
-0.300
-0.305
-0.295
-0.310
-0.295
-0.300
-0.290
-0.295
-0.290
-0.300
-0.310
-0.310
-0.320
-0.305
-0.305
-0.305
-0.325
-0.320
-0.320
-0.320
-0.315
-0.305
-0.300
-0.305
-0.315
-0.330
-0.330
-0.340
-0.340
-0.320
-0.320
-0.320
-0.325
-0.330
-0.330
-0.335
-0.350
-0.360
-0.355
-0.340
-0.320
-0.305
-0.270
-0.260
-0.265
-0.265
-0.275
-0.290
-0.300
-0.305
-0.305
-0.305
-0.290
-0.290
-0.285
-0.300
-0.310
-0.310
-0.310
-0.315
-0.330
-0.335
-0.335
-0.335
-0.320
-0.320
-0.320
-0.310
-0.295
-0.290
-0.290
-0.300
-0.310
-0.315
-0.305
-0.305
-0.300
-0.295
-0.295
-0.295
-0.305
-0.305
-0.325
-0.330
-0.340
-0.325
-0.315
-0.320
-0.305
-0.300
-0.290
-0.285
-0.290
-0.285
-0.280
-0.290
-0.305
-0.300
-0.305
-0.305
-0.315
-0.315
-0.300
-0.305
-0.295
-0.295
-0.290
-0.285
-0.285
-0.290
-0.280
-0.280
-0.250
-0.215
-0.150
-0.085
0.020
0.125
0.235
0.365
0.450
0.485
0.455
0.325
0.105
-0.160
-0.390
-0.550
-0.615
-0.645
-0.645
-0.630
-0.615
-0.595
-0.565
-0.555
-0.540
-0.540
-0.535
-0.540
-0.515
-0.490
-0.470
-0.455
-0.450
-0.440
-0.450
-0.470
-0.480
-0.475
-0.470
-0.465
-0.465
-0.455
-0.450
-0.425
-0.410
-0.385
-0.360
-0.350
-0.335
-0.315
-0.300
-0.310
-0.305
-0.315
-0.320
-0.325
-0.330
-0.315
-0.320
-0.315
-0.310
-0.325
-0.330
-0.340
-0.330
-0.325
-0.315
-0.300
-0.305
-0.295
-0.315
-0.300
-0.305
-0.310
-0.295
-0.295
-0.295
-0.285
-0.295
-0.300
-0.310
-0.305
-0.300
-0.300
-0.285
-0.275
-0.265
-0.260
-0.240
-0.235
-0.225
-0.235
-0.260
-0.245
-0.245
-0.230
-0.225
-0.200
-0.170
-0.155
-0.155
-0.145
-0.140
-0.125
-0.110
-0.100
-0.095
-0.085
-0.080
-0.055
-0.045
-0.060
-0.040
-0.050
-0.050
-0.060
-0.075
-0.080
-0.070
-0.070
-0.055
-0.040
-0.030
-0.040
-0.050
-0.070
-0.085
-0.125
-0.145
-0.155
-0.165
-0.185
-0.195
-0.210
-0.215
-0.255
-0.265
-0.275
-0.285
-0.305
-0.310
-0.305
-0.310
-0.310
-0.305
-0.295
-0.310
-0.310
-0.310
-0.340
-0.345
-0.360
-0.370
-0.375
-0.375
-0.370
-0.365
-0.350
-0.350
-0.345
-0.345
-0.345
-0.335
-0.340
-0.350
-0.360
-0.375
-0.370
-0.375
-0.370
-0.365
-0.360
-0.340
-0.350
-0.350
-0.360
-0.365
-0.365
-0.365
-0.360
-0.350
-0.355
-0.345
-0.360
-0.365
-0.370
-0.375
-0.375
-0.390
-0.405
-0.405
-0.395
-0.390
-0.380
-0.370
-0.375
-0.360
-0.355
-0.350
-0.355
-0.350
-0.350
-0.335
-0.340
-0.330
-0.320
-0.315
-0.320
-0.320
-0.320
-0.350
-0.350
-0.365
-0.360
-0.360
-0.345
-0.345
-0.330
-0.330
-0.340
-0.350
-0.365
-0.360
-0.370
-0.365
-0.365
-0.350
-0.340
-0.335
-0.345
-0.340
-0.350
-0.350
-0.365
-0.355
-0.350
-0.340
-0.340
-0.330
-0.340
-0.335
-0.350
-0.345
-0.350
-0.350
-0.345
-0.345
-0.360
-0.375
-0.385
-0.360
-0.350
-0.350
-0.335
-0.330
-0.325
-0.335
-0.345
-0.350
-0.360
-0.360
-0.345
-0.350
-0.340
-0.335
-0.335
-0.330
-0.320
-0.325
-0.320
-0.310
-0.305
-0.290
-0.270
-0.210
-0.125
-0.005
0.135
0.265
0.400
0.490
0.520
0.440
0.225
-0.070
-0.355
-0.565
-0.680
-0.715
-0.700
-0.660
-0.620
-0.575
-0.540
-0.530
-0.545
-0.570
-0.600
-0.615
-0.600
-0.560
-0.525
-0.485
-0.450
-0.450
-0.455
-0.480
-0.490
-0.510
-0.505
-0.510
-0.500
-0.490
-0.460
-0.440
-0.415
-0.395
-0.360
-0.355
-0.350
-0.345
-0.340
-0.345
-0.340
-0.340
-0.360
-0.350
-0.350
-0.340
-0.340
-0.345
-0.355
-0.365
-0.365
-0.370
-0.345
-0.355
-0.335
-0.320
-0.315
-0.310
-0.315
-0.320
-0.330
-0.335
-0.345
-0.335
-0.315
-0.305
-0.300
-0.290
-0.300
-0.300
-0.330
-0.335
-0.325
-0.320
-0.305
-0.285
-0.270
-0.245
-0.230
-0.225
-0.245
-0.245
-0.240
-0.235
-0.235
-0.235
-0.220
-0.210
-0.185
-0.170
-0.140
-0.135
-0.140
-0.130
-0.125
-0.115
-0.110
-0.115
-0.090
-0.090
-0.075
-0.065
-0.065
-0.050
-0.055
-0.065
-0.060
-0.065
-0.060
-0.075
-0.080
-0.090
-0.105
-0.105
-0.100
-0.100
-0.115
-0.130
-0.150
-0.180
-0.205
-0.235
-0.250
-0.270
-0.270
-0.280
-0.280
-0.290
-0.290
-0.290
-0.310
-0.310
-0.315
-0.335
-0.340
-0.335
-0.345
-0.325
-0.340
-0.330
-0.345
-0.360
-0.370
-0.390
-0.400
-0.400
-0.395
-0.385
-0.375
-0.345
-0.340
-0.335
-0.335
-0.350
-0.355
-0.375
-0.380
-0.375
-0.380
-0.375
-0.375
-0.380
-0.385
-0.360
-0.365
-0.365
-0.360
-0.360
-0.365
-0.375
-0.385
-0.390
-0.390
-0.385
-0.380
-0.375
-0.370
-0.390
-0.405
-0.425
-0.425
-0.425
-0.435
-0.405
-0.390
-0.375
-0.350
-0.340
-0.335
-0.340
-0.360
-0.370
-0.365
-0.365
-0.360
-0.350
-0.345
-0.335
-0.320
-0.325
-0.325
-0.330
-0.340
-0.360
-0.370
-0.375
-0.380
-0.380
-0.370
-0.355
-0.355
-0.365
-0.355
-0.360
-0.385
-0.385
-0.380
-0.385
-0.380
-0.370
-0.345
-0.350
-0.330
-0.320
-0.320
-0.330
-0.345
-0.350
-0.355
-0.360
-0.350
-0.350
-0.355
-0.345
-0.345
-0.345
-0.350
-0.375
-0.355
-0.350
-0.345
-0.345
-0.340
-0.320
-0.320
-0.315
-0.320
-0.320
-0.330
-0.315
-0.305
-0.310
-0.310
-0.335
-0.355
-0.370
-0.380
-0.360
-0.340
-0.315
-0.305
-0.290
-0.275
-0.275
-0.270
-0.245
-0.210
-0.150
-0.065
0.065
0.215
0.340
0.470
0.555
0.575
0.505
0.315
0.045
-0.240
-0.470
-0.615
-0.685
-0.695
-0.670
-0.640
-0.615
-0.595
-0.575
-0.560
-0.565
-0.570
-0.590
-0.565
-0.530
-0.490
-0.450
-0.430
-0.435
-0.445
-0.480
-0.505
-0.530
-0.530
-0.510
-0.485
-0.450
-0.425
-0.385
-0.375
-0.345
-0.345
-0.335
-0.330
-0.340
-0.340
-0.325
-0.320
-0.315
-0.310
-0.315
-0.320
-0.315
-0.335
-0.335
-0.340
-0.340
-0.335
-0.325
-0.335
-0.325
-0.315
-0.305
-0.295
-0.290
-0.285
-0.300
-0.315
-0.320
-0.330
-0.330
-0.315
-0.310
-0.295
-0.280
-0.280
-0.280
-0.275
-0.275
-0.275
-0.275
-0.265
-0.250
-0.250
-0.245
-0.250
-0.245
-0.235
-0.225
-0.205
-0.195
-0.190
-0.180
-0.185
-0.165
-0.165
-0.160
-0.130
-0.100
-0.095
-0.085
-0.075
-0.075
-0.065
-0.075
-0.065
-0.070
-0.070
-0.050
-0.050
-0.035
-0.040
-0.035
-0.040
-0.070
-0.070
-0.085
-0.095
-0.115
-0.135
-0.150
-0.140
-0.155
-0.165
-0.180
-0.210
-0.225
-0.250
-0.275
-0.280
-0.275
-0.280
-0.270
-0.260
-0.260
-0.265
-0.280
-0.280
-0.315
-0.330
-0.350
-0.360
-0.350
-0.345
-0.355
-0.340
-0.335
-0.340
-0.345
-0.335
-0.340
-0.345
-0.345
-0.350
-0.355
-0.365
-0.350
-0.345
-0.345
-0.340
-0.340
-0.350
-0.355
-0.370
-0.375
-0.375
-0.365
-0.360
-0.345
-0.355
-0.350
-0.340
-0.360
-0.365
-0.375
-0.395
-0.400
-0.400
-0.395
-0.380
-0.375
-0.360
-0.360
-0.345
-0.360
-0.345
-0.345
-0.350
-0.355
-0.365
-0.360
-0.350
-0.330
-0.325
-0.315
-0.315
-0.300
-0.305
-0.300
-0.305
-0.330
-0.335
-0.330
-0.350
-0.340
-0.335
-0.330
-0.345
-0.355
-0.350
-0.360
-0.360
-0.375
-0.370
-0.370
-0.360
-0.340
-0.320
-0.295
-0.300
-0.315
-0.305
-0.315
-0.330
-0.340
-0.340
-0.350
-0.345
-0.355
-0.340
-0.355
-0.345
-0.345
-0.340
-0.335
-0.345
-0.355
-0.350
-0.345
-0.325
-0.315
-0.300
-0.305
-0.300
-0.310
-0.330
-0.345
-0.355
-0.365
-0.350
-0.335
-0.320
-0.315
-0.305
-0.300
-0.300
-0.295
-0.290
-0.290
-0.275
-0.270
-0.255
-0.225
-0.175
-0.100
0.005
0.135
0.250
0.365
0.460
0.505
0.485
0.345
0.120
-0.155
-0.410
-0.570
-0.655
-0.665
-0.650
-0.640
-0.620
-0.595
-0.585
-0.580
-0.560
-0.545
-0.545
-0.535
-0.520
-0.485
-0.445
-0.425
-0.425
-0.440
-0.445
-0.475
-0.485
-0.490
-0.495
-0.480
-0.460
-0.430
-0.425
-0.410
-0.380
-0.370
-0.350
-0.325
-0.330
-0.315
-0.310
-0.300
-0.295
-0.290
-0.300
-0.290
-0.305
-0.305
-0.320
-0.320
-0.315
-0.325
-0.325
-0.315
-0.310
-0.295
-0.285
-0.285
-0.280
-0.285
-0.285
-0.295
-0.300
-0.310
-0.300
-0.290
-0.295
-0.275
-0.275
-0.270
-0.270
-0.275
-0.260
-0.265
-0.265
-0.265
-0.255
-0.240
-0.220
-0.205
-0.200
-0.200
-0.205
-0.205
-0.210
-0.205
-0.195
-0.190
-0.170
-0.150
-0.110
-0.090
-0.070
-0.065
-0.075
-0.075
-0.075
-0.075
-0.080
-0.075
-0.060
-0.040
-0.025
-0.020
-0.010
-0.015
-0.005
-0.015
-0.020
-0.015
-0.020
-0.040
-0.035
-0.045
-0.045
-0.055
-0.065
-0.090
-0.105
-0.140
-0.155
-0.185
-0.200
-0.210
-0.215
-0.225
-0.220
-0.210
-0.205
-0.240
-0.225
-0.245
-0.265
-0.285
-0.305
-0.315
-0.320
-0.310
-0.315
-0.300
-0.300
-0.305
-0.310
-0.325
-0.310
-0.330
-0.330
-0.330
-0.315
-0.310
-0.305
-0.295
-0.300
-0.310
-0.315
-0.325
-0.325
-0.340
-0.335
-0.330
-0.330
-0.320
-0.320
-0.300
-0.295
-0.295
-0.300
-0.325
-0.340
-0.355
-0.370
-0.370
-0.360
-0.350
-0.335
-0.335
-0.330
-0.320
-0.315
-0.330
-0.345
-0.345
-0.330
-0.325
-0.320
-0.325
-0.315
-0.320
-0.300
-0.300
-0.300
-0.290
-0.290
-0.275
-0.290
-0.300
-0.300
-0.310
-0.295
-0.300
-0.305
-0.305
-0.310
-0.310
-0.320
-0.320
-0.320
-0.330
-0.320
-0.300
-0.285
-0.260
-0.255
-0.250
-0.265
-0.280
-0.300
-0.305
-0.305
-0.300
-0.285
-0.280
-0.285
-0.280
-0.275
-0.270
-0.285
-0.280
-0.285
-0.285
-0.280
-0.260
-0.255
-0.245
-0.240
-0.235
-0.235
-0.250
-0.265
-0.280
-0.280
-0.300
-0.285
-0.275
-0.275
-0.265
-0.255
-0.245
-0.245
-0.245
-0.230
-0.235
-0.225
-0.225
-0.245
-0.220
-0.205
-0.180
-0.115
-0.045
0.060
0.185
0.335
0.470
0.560
0.545
0.395
0.125
-0.175
-0.430
-0.605
-0.675
-0.680
-0.635
-0.575
-0.515
-0.475
-0.455
-0.470
-0.485
-0.500
-0.480
-0.465
-0.435
-0.400
-0.375
-0.380
-0.385
-0.395
-0.410
-0.415
-0.400
-0.405
-0.415
-0.370
-0.355
-0.335
-0.310
-0.285
-0.265
-0.270
-0.255
-0.260
-0.250
-0.250
-0.260
-0.260
-0.250
-0.240
-0.260
-0.245
-0.250
-0.265
-0.265
-0.270
-0.265
-0.260
-0.265
-0.260
-0.240
-0.220
-0.220
-0.205
-0.210
-0.210
-0.215
-0.225
-0.225
-0.235
-0.240
-0.225
-0.210
-0.210
-0.205
-0.210
-0.210
-0.200
-0.185
-0.180
-0.155
-0.150
-0.140
-0.130
-0.125
-0.120
-0.125
-0.110
-0.110
-0.095
-0.090
-0.085
-0.075
-0.055
-0.030
-0.010
0.005
0.015
0.030
0.030
0.035
0.035
0.025
0.030
0.030
0.030
0.035
0.050
0.060
0.035
0.045
0.030
0.030
0.030
0.015
0.000
-0.005
-0.020
-0.025
-0.060
-0.065
-0.085
-0.095
-0.120
-0.135
-0.145
-0.160
-0.175
-0.200
-0.195
-0.195
-0.195
-0.185
-0.185
-0.185
-0.190
-0.200
-0.220
-0.240
-0.255
-0.260
-0.270
-0.265
-0.270
-0.255
-0.260
-0.260
-0.265
-0.290
-0.275
-0.275
-0.275
-0.265
-0.265
-0.250
-0.245
-0.245
-0.270
-0.270
-0.280
-0.280
-0.275
-0.290
-0.305
-0.305
-0.300
-0.295
-0.290
-0.275
-0.250
-0.250
-0.250
-0.255
-0.260
-0.265
-0.280
-0.290
-0.295
-0.295
-0.295
-0.280
-0.285
-0.275
-0.285
-0.290
-0.285
-0.280
-0.270
-0.265
-0.260
-0.255
-0.240
-0.230
-0.220
-0.215
-0.205
-0.210
-0.200
-0.215
-0.225
-0.230
-0.260
-0.265
-0.265
-0.245
-0.230
-0.220
-0.240
-0.230
-0.230
-0.250
-0.250
-0.270
-0.255
-0.245
-0.240
-0.220
-0.220
-0.215
-0.215
-0.220
-0.240
-0.250
-0.260
-0.260
-0.250
-0.230
-0.225
-0.220
-0.225
-0.220
-0.230
-0.230
-0.230
-0.245
-0.255
-0.260
-0.270
-0.260
-0.235
-0.225
-0.220
-0.210
-0.215
-0.225
-0.230
-0.235
-0.230
-0.215
-0.220
-0.205
-0.215
-0.210
-0.205
-0.215
-0.220
-0.215
-0.230
-0.230
-0.240
-0.230
-0.210
-0.190
-0.160
-0.135
-0.110
-0.075
-0.020
0.030
0.115
0.235
0.345
0.465
0.540
0.545
0.445
0.240
-0.020
-0.290
-0.485
-0.605
-0.630
-0.630
-0.590
-0.540
-0.490
-0.450
-0.430
-0.425
-0.435
-0.445
-0.440
-0.415
-0.375
-0.345
-0.340
-0.335
-0.345
-0.355
-0.350
-0.350
-0.345
-0.340
-0.315
-0.300
-0.275
-0.255
-0.235
-0.230
-0.215
-0.220
-0.205
-0.190
-0.190
-0.200
-0.200
-0.215
-0.215
-0.235
-0.230
-0.220
-0.220
-0.210
-0.200
-0.200
-0.200
-0.215
-0.210
-0.225
-0.215
-0.220
-0.205
-0.195
-0.195
-0.190
-0.185
-0.190
-0.180
-0.185
-0.195
-0.185
-0.185
-0.185
-0.190
-0.190
-0.180
-0.165
-0.135
-0.120
-0.115
-0.110
-0.105
-0.110
-0.105
-0.100
-0.095
-0.085
-0.085
-0.085
-0.095
-0.090
-0.050
-0.040
-0.010
0.005
0.015
0.025
0.025
0.025
0.035
0.030
0.030
0.050
0.065
0.075
0.075
0.060
0.055
0.050
0.035
0.030
0.035
0.035
0.030
0.035
0.030
-0.005
-0.020
-0.035
-0.065
-0.085
-0.105
-0.105
-0.125
-0.130
-0.135
-0.140
-0.155
-0.165
-0.170
-0.170
-0.180
-0.180
-0.190
-0.200
-0.195
-0.205
-0.200
-0.210
-0.205
-0.220
-0.215
-0.230
-0.235
-0.240
-0.260
-0.240
-0.245
-0.230
-0.220
-0.210
-0.210
-0.210
-0.220
-0.230
-0.230
-0.245
-0.250
-0.250
-0.240
-0.230
-0.220
-0.220
-0.215
-0.210
-0.205
-0.225
-0.210
-0.215
-0.220
-0.215
-0.230
-0.220
-0.240
-0.245
-0.235
-0.250
-0.250
-0.255
-0.265
-0.260
-0.275
-0.280
-0.255
-0.240
-0.225
-0.215
-0.220
-0.205
-0.205
-0.200
-0.190
-0.185
-0.180
-0.160
-0.150
-0.155
-0.155
-0.160
-0.170
-0.195
-0.190
-0.200
-0.210
-0.205
-0.200
-0.185
-0.190
-0.190
-0.185
-0.190
-0.195
-0.200
-0.205
-0.215
-0.220
-0.225
-0.225
-0.225
-0.240
-0.215
-0.205
-0.195
-0.190
-0.195
-0.190
-0.195
-0.210
-0.220
-0.220
-0.220
-0.210
-0.205
-0.215
-0.195
-0.185
-0.195
-0.190
-0.185
-0.185
-0.190
-0.190
-0.180
-0.160
-0.160
-0.160
-0.160
-0.160
-0.175
-0.180
-0.180
-0.185
-0.190
-0.195
-0.195
-0.200
-0.185
-0.185
-0.185
-0.160
-0.155
-0.130
-0.125
-0.100
-0.090
-0.060
-0.015
0.045
0.135
0.225
0.335
0.445
0.525
0.545
0.470
0.290
0.060
-0.205
-0.410
-0.545
-0.590
-0.580
-0.545
-0.500
-0.455
-0.425
-0.410
-0.400
-0.420
-0.445
-0.445
-0.435
-0.415
-0.355
-0.315
-0.290
-0.290
-0.300
-0.320
-0.335
-0.355
-0.345
-0.335
-0.325
-0.310
-0.310
-0.300
-0.275
-0.245
-0.230
-0.210
-0.200
-0.205
-0.220
-0.220
-0.215
-0.215
-0.185
-0.170
-0.170
-0.190
-0.180
-0.180
-0.190
-0.210
-0.205
-0.215
-0.235
-0.230
-0.220
-0.205
-0.205
-0.190
-0.175
-0.175
-0.175
-0.185
-0.190
-0.190
-0.195
-0.190
-0.200
-0.175
-0.165
-0.170
-0.170
-0.180
-0.180
-0.180
-0.185
-0.175
-0.165
-0.130
-0.120
-0.105
-0.090
-0.095
-0.090
-0.090
-0.090
-0.085
-0.085
-0.090
-0.080
-0.070
-0.050
-0.030
-0.010
-0.010
0.020
0.020
0.045
0.035
0.035
0.030
0.040
0.050
0.055
0.060
0.070
0.050
0.050
0.030
0.030
0.020
0.005
-0.005
-0.020
-0.025
-0.040
-0.055
-0.045
-0.070
-0.095
-0.120
-0.130
-0.160
-0.190
-0.185
-0.200
-0.195
-0.195
-0.195
-0.195
-0.200
-0.195
-0.200
-0.205
-0.215
-0.225
-0.230
-0.235
-0.250
-0.250
-0.265
-0.255
-0.245
-0.245
-0.260
-0.255
-0.275
-0.275
-0.280
-0.255
-0.255
-0.255
-0.250
-0.250
-0.240
-0.245
-0.250
-0.255
-0.260
-0.265
-0.255
-0.255
-0.250
-0.255
-0.260
-0.240
-0.240
-0.230
-0.240
-0.230
-0.240
-0.240
-0.240
-0.245
-0.240
-0.225
-0.220
-0.220
-0.230
-0.240
-0.250
-0.250
-0.260
-0.265
-0.260
-0.240
-0.225
-0.210
-0.210
-0.205
-0.225
-0.245
-0.265
-0.265
-0.265
-0.270
-0.260
-0.260
-0.255
-0.250
-0.245
-0.250
-0.245
-0.255
-0.250
-0.240
-0.250
-0.250
-0.250
-0.275
-0.270
-0.270
-0.260
-0.280
-0.285
-0.280
-0.280
-0.280
-0.280
-0.270
-0.255
-0.255
-0.260
-0.260
-0.260
-0.250
-0.260
-0.265
-0.280
-0.295
-0.290
-0.295
-0.285
-0.285
-0.270
-0.265
-0.235
-0.225
-0.235
-0.240
-0.250
-0.270
-0.270
-0.285
-0.275
-0.290
-0.285
-0.290
-0.280
-0.275
-0.275
-0.270
-0.285
-0.280
-0.290
-0.290
-0.285
-0.290
-0.295
-0.285
-0.275
-0.265
-0.275
-0.275
-0.285
-0.285
-0.300
-0.300
-0.290
-0.285
-0.290
-0.285
-0.270
-0.250
-0.260
-0.260
-0.260
-0.275
-0.280
-0.300
-0.310
-0.310
-0.300
-0.285
-0.270
-0.270
-0.265
-0.265
-0.270
-0.285
-0.285
-0.285
-0.280
-0.275
-0.280
-0.280
-0.270
-0.265
-0.270
-0.265
-0.280
-0.275
-0.290
-0.285
-0.285
-0.290
-0.290
-0.270
-0.260
-0.265
-0.265
-0.250
-0.255
-0.270
-0.280
-0.275
-0.275
-0.270
-0.280
-0.265
-0.275
-0.270
-0.285
-0.295
-0.295
-0.315
-0.310
-0.300
-0.300
-0.280
-0.275
-0.285
-0.280
-0.285
-0.290
-0.295
-0.300
-0.300
-0.305
-0.300
-0.305
-0.295
-0.290
-0.280
-0.280
-0.270
-0.280
-0.265
-0.290
-0.285
-0.295
-0.300
-0.285
-0.295
-0.285
-0.280
-0.285
-0.285
-0.295
-0.295
-0.300
-0.305
-0.300
-0.310
-0.285
-0.275
-0.275
-0.270
-0.275
-0.265
-0.270
-0.275
-0.270
-0.290
-0.295
-0.310
-0.310
-0.315
-0.310
-0.300
-0.300
-0.270
-0.270
-0.265
-0.255
-0.280
-0.295
-0.310
-0.315
-0.300
-0.290
-0.280
-0.280
-0.280
-0.295
-0.310
-0.315
-0.315
-0.320
-0.320
-0.320
-0.315
-0.290
-0.260
-0.255
-0.255
-0.265
-0.255
-0.270
-0.285
-0.305
-0.315
-0.310
-0.330
-0.310
-0.305
-0.285
-0.270
-0.260
-0.270
-0.270
-0.285
-0.295
-0.295
-0.300
-0.310
-0.295
-0.295
-0.285
-0.300
-0.305
-0.295
-0.310
-0.315
-0.320
-0.325
-0.315
-0.305
-0.300
-0.280
-0.270
-0.270
-0.280
-0.275
-0.285
-0.300
-0.300
-0.305
-0.310
-0.315
-0.300
-0.290
-0.285
-0.270
-0.285
-0.290
-0.285
-0.305
-0.305
-0.305
-0.295
-0.300
-0.300
-0.295
-0.300
-0.295
-0.290
-0.290
-0.300
-0.300
-0.315
-0.320
-0.320
-0.305
-0.305
-0.290
-0.275
-0.260
-0.275
-0.270
-0.295
-0.310
-0.320
-0.325
-0.335
-0.315
-0.315
-0.305
-0.300
-0.305
-0.295
-0.295
-0.295
-0.310
-0.305
-0.315
-0.320
-0.315
-0.320
-0.295
-0.285
-0.280
-0.285
-0.290
-0.315
-0.315
-0.320
-0.310
-0.300
-0.300
-0.290
-0.280
-0.285
-0.285
-0.285
-0.285
-0.285
-0.295
-0.295
-0.305
-0.295
-0.300
-0.305
-0.305
-0.300
-0.285
-0.270
-0.280
-0.285
-0.290
-0.300
-0.300
-0.300
-0.305
-0.295
-0.285
-0.290
-0.280
-0.290
-0.290
-0.305
-0.315
-0.330
-0.325
-0.320
-0.315
-0.305
-0.285
-0.270
-0.255
-0.260
-0.260
-0.270
-0.280
-0.295
-0.305
-0.310
-0.315
-0.310
-0.295
-0.290
-0.265
-0.265
-0.265
-0.265
-0.265
-0.265
-0.275
-0.265
-0.270
-0.280
-0.280
-0.270
-0.270
-0.265
-0.265
-0.280
-0.275
-0.280
-0.295
-0.295
-0.295
-0.280
-0.275
-0.265
-0.260
-0.285
-0.295
-0.285
-0.295
-0.290
-0.295
-0.285
-0.275
-0.260
-0.245
-0.245
-0.255
-0.265
-0.280
-0.285
-0.285
-0.280
-0.290
-0.295
-0.300
-0.295
-0.295
-0.270
-0.255
-0.240
-0.235
-0.240
-0.245
-0.265
-0.285
-0.280
-0.290
-0.285
-0.275
-0.255
-0.245
-0.260
-0.270
-0.275
-0.290
-0.285
-0.290
-0.285
-0.270
-0.255
-0.245
-0.245
-0.240
-0.245
-0.260
-0.265
-0.280
-0.275
-0.290
-0.295
-0.300
-0.280
-0.280
-0.270
-0.265
-0.260
-0.250
-0.260
-0.280
-0.275
-0.275
-0.270
-0.265
-0.240
-0.245
-0.260
-0.265
-0.285
-0.270
-0.280
-0.275
-0.275
-0.275
-0.265
-0.255
-0.255
-0.235
-0.230
-0.235
-0.230
-0.245
-0.250
-0.275
-0.280
-0.280
-0.285
-0.285
-0.285
-0.275
-0.260
-0.255
-0.245
-0.235
-0.240
-0.250
-0.250
-0.265
-0.260
-0.275
-0.260
-0.270
-0.260
-0.260
-0.255
-0.240
-0.250
-0.250
-0.260
-0.270
-0.270
-0.280
-0.270
-0.255
-0.245
-0.240
-0.240
-0.245
-0.250
-0.265
-0.275
-0.270
-0.280
-0.270
-0.270
-0.265
-0.270
-0.250
-0.250
-0.235
-0.230
-0.240
-0.250
-0.260
-0.250
-0.255
-0.255
-0.265
-0.250
-0.240
-0.245
-0.250
-0.275
-0.280
-0.280
-0.285
-0.280
-0.260
-0.255
-0.245
-0.240
-0.240
-0.230
-0.230
-0.240
-0.250
-0.250
-0.255
-0.265
-0.270
-0.260
-0.260
-0.250
-0.255
-0.245
-0.245
-0.250
-0.245
-0.240
-0.245
-0.260
-0.245
-0.230
-0.225
-0.225
-0.230
-0.245
-0.245
-0.265
-0.260
-0.265
-0.255
-0.260
-0.255
-0.250
-0.240
-0.235
-0.230
-0.230
-0.250
-0.245
-0.245
-0.240
-0.245
-0.250
-0.260
-0.265
-0.260
-0.255
-0.245
-0.235
-0.240
-0.235
-0.240
-0.235
-0.235
-0.230
-0.235
-0.240
-0.240
-0.235
-0.230
-0.235
-0.230
-0.230
-0.225
-0.230
-0.245
-0.235
-0.240
-0.230
-0.210
-0.200
-0.190
-0.185
-0.190
-0.195
-0.205
-0.215
-0.230
-0.225
-0.225
-0.230
-0.225
-0.215
-0.210
-0.215
-0.215
-0.210
-0.215
-0.220
-0.215
-0.215
-0.210
-0.200
-0.185
-0.190
-0.185
-0.185
-0.195
-0.200
-0.190
-0.205
-0.205
-0.225
-0.220
-0.225
-0.220
-0.205
-0.175
-0.175
-0.190
-0.180
-0.185
-0.210
-0.210
-0.220
-0.210
-0.205
-0.190
-0.180
-0.175
-0.170
-0.170
-0.180
-0.190
-0.190
-0.190
-0.185
-0.185
-0.175
-0.165
-0.155
-0.150
-0.165
-0.165
-0.170
-0.185
-0.205
-0.200
-0.200
-0.195
-0.190
-0.180
-0.170
-0.155
-0.155
-0.155
-0.155
-0.165
-0.175
-0.200
-0.210
-0.205
-0.190
-0.190
-0.160
-0.155
-0.150
-0.165
-0.160
-0.165
-0.160
-0.160
-0.145
-0.135
-0.120
-0.120
-0.105
-0.115
-0.125
-0.115
-0.110
-0.120
-0.115
-0.105
-0.090
-0.085
-0.070
-0.065
-0.045
-0.015
-0.015
-0.025
-0.025
-0.045
-0.045
-0.050
-0.075
-0.060
-0.040
-0.055
-0.040
-0.055
-0.065
-0.075
-0.080
-0.065
-0.060
-0.055
-0.045
-0.055
-0.075
-0.085
-0.090
-0.085
-0.090
-0.080
-0.100
-0.110
-0.125
-0.135
-0.155
-0.150
-0.145
-0.135
-0.125
-0.115
-0.095
-0.115
-0.125
-0.150
-0.160
-0.180
-0.180
-0.185
-0.180
-0.165
-0.170
-0.165
-0.175
-0.175
-0.180
-0.175
-0.170
-0.180
-0.180
-0.170
-0.160
-0.165
-0.150
-0.130
-0.115
-0.120
-0.100
-0.075
-0.060
-0.015
0.040
0.135
0.280
0.425
0.565
0.690
0.720
0.630
0.415
0.130
-0.115
-0.310
-0.435
-0.500
-0.490
-0.465
-0.400
-0.345
-0.305
-0.280
-0.300
-0.320
-0.335
-0.330
-0.300
-0.265
-0.245
-0.220
-0.220
-0.225
-0.240
-0.265
-0.285
-0.295
-0.305
-0.305
-0.290
-0.250
-0.210
-0.180
-0.150
-0.125
-0.130
-0.135
-0.155
-0.165
-0.185
-0.200
-0.205
-0.205
-0.195
-0.195
-0.185
-0.195
-0.190
-0.180
-0.185
-0.195
-0.205
-0.205
-0.210
-0.200
-0.200
-0.190
-0.175
-0.175
-0.175
-0.180
-0.175
-0.185
-0.190
-0.190
-0.180
-0.160
-0.135
-0.130
-0.115
-0.105
-0.110
-0.115
-0.105
-0.105
-0.105
-0.110
-0.115
-0.105
-0.110
-0.085
-0.070
-0.035
-0.030
-0.010
-0.005
0.000
-0.005
0.000
0.015
0.035
0.040
0.060
0.080
0.090
0.095
0.095
0.100
0.090
0.085
0.070
0.095
0.105
0.110
0.105
0.115
0.120
0.110
0.095
0.080
0.070
0.050
0.045
0.040
0.020
0.020
0.020
0.000
-0.005
-0.005
-0.020
-0.025
-0.040
-0.070
-0.090
-0.130
-0.140
-0.150
-0.165
-0.150
-0.140
-0.145
-0.160
-0.180
-0.195
-0.200
-0.200
-0.195
-0.195
-0.180
-0.180
-0.180
-0.175
-0.165
-0.160
-0.180
-0.190
-0.200
-0.215
-0.215
-0.225
-0.200
-0.210
-0.195
-0.175
-0.155
-0.145
-0.150
-0.155
-0.165
-0.185
-0.180
-0.185
-0.190
-0.175
-0.165
-0.165
-0.170
-0.160
-0.160
-0.150
-0.155
-0.150
-0.155
-0.165
-0.165
-0.155
-0.155
-0.150
-0.150
-0.155
-0.145
-0.145
-0.155
-0.155
-0.170
-0.155
-0.145
-0.150
-0.135
-0.130
-0.130
-0.125
-0.145
-0.155
-0.155
-0.155
-0.155
-0.150
-0.160
-0.160
-0.160
-0.150
-0.155
-0.150
-0.160
-0.175
-0.175
-0.180
-0.165
-0.170
-0.150
-0.150
-0.150
-0.140
-0.150
-0.155
-0.160
-0.165
-0.165
-0.175
-0.175
-0.160
-0.165
-0.150
-0.155
-0.140
-0.140
-0.145
-0.150
-0.165
-0.175
-0.180
-0.195
-0.190
-0.195
-0.195
-0.185
-0.180
-0.180
-0.185
-0.200
-0.200
-0.215
-0.205
-0.210
-0.195
-0.175
-0.165
-0.170
-0.175
-0.210
-0.235
-0.250
-0.245
-0.245
-0.235
-0.230
-0.215
-0.210
-0.205
-0.200
-0.195
-0.195
-0.190
-0.195
-0.215
-0.225
-0.230
-0.240
-0.225
-0.215
-0.200
-0.195
-0.190
-0.190
-0.185
-0.190
-0.205
-0.200
-0.215
-0.215
-0.215
-0.200
-0.200
-0.185
-0.165
-0.170
-0.175
-0.180
-0.180
-0.200
-0.190
-0.185
-0.185
-0.175
-0.165
-0.155
-0.145
-0.145
-0.145
-0.150
-0.155
-0.160
-0.155
-0.165
-0.170
-0.175
-0.165
-0.155
-0.155
-0.155
-0.145
-0.140
-0.150
-0.145
-0.165
-0.175
-0.170
-0.180
-0.175
-0.180
-0.175
-0.165
-0.160
-0.160
-0.175
-0.195
-0.200
-0.210
-0.210
-0.200
-0.190
-0.190
-0.190
-0.190
-0.190
-0.195
-0.200
-0.205
-0.220
-0.225
-0.230
-0.235
-0.235
-0.225
-0.205
-0.205
-0.200
-0.180
-0.180
-0.200
-0.200
-0.200
-0.210
-0.210
-0.210
-0.215
-0.200
-0.200
-0.195
-0.190
-0.205
-0.215
-0.205
-0.225
-0.220
-0.205
-0.200
-0.185
-0.180
-0.190
-0.190
-0.200
-0.215
-0.225
-0.225
-0.230
-0.230
-0.230
-0.220
-0.220
-0.225
-0.220
-0.225
-0.220
-0.225
-0.235
-0.240
-0.240
-0.225
-0.220
-0.220
-0.220
-0.220
-0.230
-0.225
-0.240
-0.240
-0.235
-0.250
-0.260
-0.255
-0.245
-0.235
-0.235
-0.215
-0.205
-0.215
-0.220
-0.220
-0.235
-0.245
-0.260
-0.260
-0.250
-0.250
-0.230
-0.235
-0.245
-0.250
-0.250
-0.235
-0.250
-0.260
-0.260
-0.250
-0.250
-0.250
-0.225
-0.220
-0.215
-0.230
-0.240
-0.255
-0.270
-0.280
-0.270
-0.255
-0.245
-0.220
-0.210
-0.200
-0.205
-0.210
-0.220
-0.240
-0.250
-0.265
-0.255
-0.255
-0.255
-0.260
-0.265
-0.250
-0.250
-0.240
-0.230
-0.215
-0.210
-0.195
-0.195
-0.180
-0.185
-0.175
-0.180
-0.185
-0.200
-0.185
-0.195
-0.185
-0.185
-0.180
-0.185
-0.170
-0.160
-0.175
-0.185
-0.190
-0.200
-0.205
-0.210
-0.215
-0.230
-0.245
-0.250
-0.250
-0.255
-0.235
-0.230
-0.220
-0.215
-0.230
-0.250
-0.280
-0.300
-0.290
-0.295
-0.275
-0.275
-0.275
-0.285
-0.290
-0.310
-0.310
-0.295
-0.285
-0.270
-0.285
-0.285
-0.290
-0.285
-0.290
-0.305
-0.285
-0.295
-0.295
-0.295
-0.310
-0.300
-0.290
-0.285
-0.285
-0.270
-0.250
-0.265
-0.250
-0.250
-0.235
-0.220
-0.205
-0.140
-0.040
0.075
0.225
0.385
0.545
0.660
0.710
0.645
0.440
0.165
-0.145
-0.380
-0.545
-0.630
-0.645
-0.625
-0.585
-0.550
-0.505
-0.490
-0.495
-0.510
-0.535
-0.545
-0.540
-0.510
-0.480
-0.445
-0.420
-0.410
-0.420
-0.435
-0.430
-0.430
-0.435
-0.425
-0.415
-0.420
-0.390
-0.375
-0.350
-0.325
-0.305
-0.295
-0.295
-0.285
-0.295
-0.290
-0.280
-0.280
-0.270
-0.265
-0.270
-0.265
-0.265
-0.255
-0.270
-0.270
-0.265
-0.270
-0.300
-0.310
-0.315
-0.310
-0.290
-0.285
-0.285
-0.280
-0.275
-0.255
-0.255
-0.270
-0.280
-0.275
-0.280
-0.285
-0.285
-0.260
-0.245
-0.230
-0.210
-0.205
-0.200
-0.205
-0.205
-0.205
-0.210
-0.205
-0.205
-0.195
-0.180
-0.165
-0.160
-0.170
-0.170
-0.175
-0.180
-0.170
-0.155
-0.135
-0.110
-0.080
-0.070
-0.045
-0.040
-0.035
-0.045
-0.055
-0.050
-0.040
-0.045
-0.040
-0.020
-0.015
-0.005
0.005
0.005
0.000
-0.005
-0.010
-0.020
-0.030
-0.040
-0.055
-0.060
-0.085
-0.070
-0.090
-0.105
-0.110
-0.155
-0.180
-0.195
-0.205
-0.200
-0.190
-0.195
-0.200
-0.210
-0.225
-0.245
-0.265
-0.290
-0.285
-0.290
-0.310
-0.330
-0.340
-0.320
-0.315
-0.305
-0.285
-0.285
-0.280
-0.290
-0.295
-0.310
-0.330
-0.345
-0.345
-0.345
-0.350
-0.345
-0.345
-0.350
-0.355
-0.350
-0.355
-0.345
-0.355
-0.350
-0.330
-0.330
-0.300
-0.285
-0.275
-0.275
-0.285
-0.305
-0.305
-0.300
-0.300
-0.285
-0.275
-0.250
-0.230
-0.225
-0.220
-0.235
-0.245
-0.250
-0.260
-0.255
-0.265
-0.270
-0.275
-0.285
-0.290
-0.290
-0.285
-0.295
-0.290
-0.285
-0.285
-0.270
-0.265
-0.250
-0.235
-0.235
-0.240
-0.250
-0.245
-0.270
-0.285
-0.305
-0.305
-0.310
-0.310
-0.300
-0.295
-0.295
-0.305
-0.295
-0.295
-0.290
-0.285
-0.275
-0.290
-0.285
-0.290
-0.285
-0.305
-0.300
-0.300
-0.295
-0.310
-0.305
-0.295
-0.305
-0.315
-0.320
-0.315
-0.300
-0.295
-0.280
-0.260
-0.260
-0.260
-0.265
-0.260
-0.260
-0.255
-0.230
-0.190
-0.115
-0.015
0.110
0.270
0.435
0.580
0.685
0.720
0.620
0.400
0.085
-0.215
-0.465
-0.615
-0.690
-0.680
-0.635
-0.610
-0.575
-0.540
-0.530
-0.535
-0.545
-0.565
-0.570
-0.525
-0.490
-0.450
-0.410
-0.420
-0.430
-0.435
-0.445
-0.455
-0.475
-0.470
-0.460
-0.460
-0.430
-0.410
-0.370
-0.330
-0.305
-0.280
-0.260
-0.265
-0.280
-0.285
-0.295
-0.310
-0.310
-0.305
-0.300
-0.285
-0.275
-0.280
-0.285
-0.280
-0.295
-0.300
-0.300
-0.300
-0.285
-0.270
-0.255
-0.250
-0.250
-0.250
-0.260
-0.265
-0.255
-0.265
-0.260
-0.265
-0.275
-0.285
-0.265
-0.255
-0.245
-0.240
-0.240
-0.240
-0.240
-0.245
-0.245
-0.220
-0.205
-0.195
-0.185
-0.180
-0.180
-0.175
-0.170
-0.180
-0.175
-0.170
-0.155
-0.135
-0.100
-0.075
-0.040
-0.030
-0.020
-0.040
-0.045
-0.045
-0.065
-0.045
-0.030
-0.015
0.010
0.035
0.045
0.055
0.055
0.050
0.055
0.065
0.055
0.045
0.035
0.015
0.005
-0.015
-0.010
-0.035
-0.040
-0.065
-0.075
-0.110
-0.140
-0.160
-0.170
-0.180
-0.190
-0.200
-0.195
-0.210
-0.235
-0.255
-0.260
-0.280
-0.295
-0.315
-0.325
-0.345
-0.350
-0.335
-0.330
-0.315
-0.315
-0.315
-0.325
-0.340
-0.335
-0.355
-0.335
-0.335
-0.330
-0.340
-0.335
-0.320
-0.325
-0.315
-0.325
-0.325
-0.330
-0.350
-0.365
-0.355
-0.350
-0.340
-0.330
-0.320
-0.320
-0.330
-0.335
-0.340
-0.340
-0.345
-0.345
-0.335
-0.335
-0.335
-0.325
-0.330
-0.350
-0.350
-0.355
-0.345
-0.350
-0.345
-0.340
-0.335
-0.340
-0.340
-0.315
-0.320
-0.305
-0.305
-0.305
-0.325
-0.330
-0.325
-0.325
-0.320
-0.310
-0.295
-0.270
-0.265
-0.245
-0.260
-0.280
-0.320
-0.330
-0.340
-0.350
-0.345
-0.340
-0.355
-0.360
-0.360
-0.355
-0.330
-0.335
-0.335
-0.340
-0.340
-0.330
-0.320
-0.310
-0.280
-0.265
-0.280
-0.315
-0.325
-0.350
-0.335
-0.330
-0.310
-0.295
-0.310
-0.320
-0.355
-0.360
-0.360
-0.345
-0.310
-0.295
-0.295
-0.295
-0.295
-0.315
-0.330
-0.345
-0.335
-0.330
-0.315
-0.310
-0.300
-0.295
-0.310
-0.310
-0.305
-0.300
-0.290
-0.290
-0.260
-0.240
-0.215
-0.210
-0.190
-0.170
-0.125
-0.090
-0.015
0.095
0.195
0.300
0.415
0.505
0.505
0.405
0.230
-0.045
-0.300
-0.510
-0.630
-0.685
-0.690
-0.675
-0.650
-0.610
-0.570
-0.550
-0.540
-0.540
-0.560
-0.575
-0.590
-0.575
-0.545
-0.485
-0.445
-0.425
-0.415
-0.420
-0.430
-0.455
-0.460
-0.475
-0.465
-0.465
-0.460
-0.445
-0.415
-0.380
-0.350
-0.335
-0.325
-0.325
-0.330
-0.335
-0.345
-0.320
-0.300
-0.300
-0.290
-0.295
-0.300
-0.325
-0.330
-0.335
-0.335
-0.340
-0.330
-0.315
-0.295
-0.265
-0.255
-0.260
-0.280
-0.305
-0.305
-0.315
-0.305
-0.295
-0.280
-0.275
-0.285
-0.290
-0.305
-0.315
-0.325
-0.330
-0.315
-0.305
-0.285
-0.280
-0.260
-0.240
-0.240
-0.245
-0.235
-0.235
-0.225
-0.205
-0.205
-0.205
-0.200
-0.200
-0.185
-0.155
-0.130
-0.110
-0.090
-0.060
-0.055
-0.060
-0.055
-0.075
-0.065
-0.065
-0.055
-0.035
-0.025
-0.010
-0.020
-0.020
-0.030
-0.040
-0.045
-0.050
-0.060
-0.075
-0.070
-0.080
-0.100
-0.125
-0.125
-0.140
-0.175
-0.190
-0.215
-0.240
-0.255
-0.275
-0.310
-0.320
-0.335
-0.335
-0.335
-0.330
-0.315
-0.325
-0.330
-0.335
-0.350
-0.360
-0.370
-0.365
-0.355
-0.350
-0.355
-0.355
-0.370
-0.380
-0.370
-0.390
-0.395
-0.395
-0.395
-0.390
-0.390
-0.355
-0.350
-0.355
-0.360
-0.375
-0.375
-0.385
-0.390
-0.400
-0.400
-0.395
-0.380
-0.375
-0.375
-0.370
-0.370
-0.375
-0.365
-0.380
-0.375
-0.370
-0.370
-0.360
-0.370
-0.375
-0.385
-0.380
-0.380
-0.375
-0.375
-0.380
-0.385
-0.385
-0.360
-0.335
-0.315
-0.305
-0.295
-0.305
-0.320
-0.335
-0.330
-0.335
-0.335
-0.350
-0.355
-0.360
-0.365
-0.365
-0.355
-0.350
-0.350
-0.355
-0.360
-0.350
-0.370
-0.360
-0.365
-0.350
-0.355
-0.330
-0.345
-0.350
-0.360
-0.370
-0.380
-0.375
-0.375
-0.380
-0.360
-0.355
-0.345
-0.340
-0.350
-0.350
-0.340
-0.355
-0.350
-0.355
-0.360
-0.355
-0.370
-0.355
-0.370
-0.355
-0.345
-0.340
-0.310
-0.315
-0.315
-0.330
-0.340
-0.345
-0.360
-0.350
-0.340
-0.330
-0.325
-0.330
-0.325
-0.330
-0.320
-0.315
-0.285
-0.265
-0.215
-0.130
-0.015
0.130
0.275
0.435
0.555
0.635
0.645
0.560
0.350
0.050
-0.260
-0.500
-0.650
-0.700
-0.695
-0.680
-0.635
-0.620
-0.590
-0.565
-0.565
-0.575
-0.580
-0.580
-0.570
-0.555
-0.525
-0.500
-0.475
-0.465
-0.460
-0.465
-0.490
-0.505
-0.510
-0.510
-0.495
-0.490
-0.475
-0.450
-0.425
-0.385
-0.380
-0.375
-0.355
-0.365
-0.360
-0.350
-0.340
-0.320
-0.315
-0.315
-0.305
-0.300
-0.305
-0.310
-0.315
-0.315
-0.325
-0.315
-0.300
-0.290
-0.295
-0.295
-0.300
-0.325
-0.320
-0.325
-0.330
-0.320
-0.325
-0.325
-0.315
-0.295
-0.295
-0.280
-0.270
-0.265
-0.260
-0.270
-0.265
-0.280
-0.285
-0.290
-0.305
-0.280
-0.270
-0.235
-0.220
-0.220
-0.200
-0.195
-0.190
-0.200
-0.205
-0.200
-0.190
-0.155
-0.140
-0.125
-0.100
-0.105
-0.110
-0.100
-0.095
-0.080
-0.075
-0.055
-0.025
-0.010
-0.015
-0.005
0.000
0.000
-0.005
-0.010
-0.020
-0.040
-0.065
-0.050
-0.055
-0.045
-0.060
-0.060
-0.060
-0.085
-0.080
-0.100
-0.130
-0.145
-0.160
-0.175
-0.180
-0.190
-0.210
-0.210
-0.220
-0.250
-0.280
-0.300
-0.310
-0.320
-0.335
-0.320
-0.330
-0.315
-0.320
-0.315
-0.315
-0.305
-0.295
-0.300
-0.310
-0.325
-0.335
-0.335
-0.350
-0.340
-0.330
-0.330
-0.335
-0.335
-0.335
-0.340
-0.330
-0.325
-0.330
-0.320
-0.325
-0.320
-0.330
-0.315
-0.320
-0.325
-0.320
-0.335
-0.340
-0.355
-0.365
-0.375
-0.375
-0.355
-0.340
-0.325
-0.320
-0.325
-0.325
-0.335
-0.355
-0.355
-0.370
-0.360
-0.355
-0.345
-0.335
-0.340
-0.320
-0.320
-0.305
-0.300
-0.305
-0.295
-0.295
-0.295
-0.290
-0.290
-0.285
-0.285
-0.290
-0.285
-0.285
-0.305
-0.325
-0.340
-0.360
-0.370
-0.375
-0.360
-0.325
-0.315
-0.300
-0.285
-0.295
-0.305
-0.325
-0.330
-0.330
-0.335
-0.340
-0.320
-0.310
-0.315
-0.310
-0.310
-0.315
-0.330
-0.335
-0.340
-0.345
-0.330
-0.315
-0.300
-0.280
-0.285
-0.295
-0.295
-0.310
-0.330
-0.325
-0.330
-0.320
-0.315
-0.315
-0.310
-0.305
-0.295
-0.290
-0.270
-0.280
-0.275
-0.270
-0.265
-0.275
-0.270
-0.240
-0.200
-0.135
-0.045
0.055
0.165
0.300
0.415
0.530
0.590
0.560
0.400
0.120
-0.180
-0.430
-0.605
-0.685
-0.695
-0.675
-0.630
-0.585
-0.545
-0.545
-0.540
-0.550
-0.530
-0.495
-0.460
-0.415
-0.390
-0.395
-0.425
-0.455
-0.495
-0.515
-0.510
-0.485
-0.475
-0.435
-0.400
-0.370
-0.340
-0.325
-0.310
-0.300
-0.295
-0.285
-0.295
-0.295
-0.300
-0.290
-0.295
-0.285
-0.290
-0.290
-0.300
-0.300
-0.305
-0.310
-0.305
-0.300
-0.300
-0.280
-0.290
-0.280
-0.280
-0.280
-0.290
-0.280
-0.285
-0.275
-0.270
-0.275
-0.265
-0.270
-0.275
-0.260
-0.270
-0.255
-0.245
-0.235
-0.230
-0.225
-0.225
-0.235
-0.205
-0.200
-0.190
-0.195
-0.185
-0.180
-0.185
-0.165
-0.150
-0.130
-0.100
-0.085
-0.060
-0.045
-0.030
-0.025
-0.020
-0.010
-0.015
-0.020
-0.020
-0.030
-0.025
-0.025
-0.025
-0.005
0.000
-0.005
0.005
0.005
0.000
-0.015
-0.035
-0.055
-0.080
-0.095
-0.110
-0.125
-0.145
-0.140
-0.160
-0.170
-0.195
-0.205
-0.220
-0.225
-0.235
-0.235
-0.235
-0.245
-0.245
-0.250
-0.250
-0.255
-0.265
-0.280
-0.285
-0.305
-0.310
-0.305
-0.310
-0.290
-0.275
-0.270
-0.275
-0.295
-0.305
-0.325
-0.330
-0.340
-0.315
-0.315
-0.310
-0.295
-0.295
-0.295
-0.305
-0.300
-0.315
-0.310
-0.320
-0.325
-0.320
-0.330
-0.325
-0.325
-0.325
-0.340
-0.325
-0.320
-0.325
-0.335
-0.335
-0.350
-0.355
-0.355
-0.350
-0.340
-0.325
-0.315
-0.310
-0.310
-0.300
-0.300
-0.295
-0.290
-0.280
-0.270
-0.255
-0.245
-0.250
-0.275
-0.290
-0.300
-0.315
-0.330
-0.325
-0.325
-0.320
-0.310
-0.320
-0.305
-0.300
-0.295
-0.295
-0.295
-0.305
-0.310
-0.310
-0.310
-0.300
-0.290
-0.285
-0.295
-0.290
-0.290
-0.295
-0.295
-0.300
-0.295
-0.305
-0.295
-0.300
-0.300
-0.295
-0.295
-0.285
-0.290
-0.295
-0.300
-0.305
-0.300
-0.300
-0.305
-0.305
-0.295
-0.285
-0.270
-0.265
-0.260
-0.265
-0.275
-0.280
-0.265
-0.280
-0.285
-0.285
-0.285
-0.280
-0.280
-0.270
-0.260
-0.260
-0.250
-0.215
-0.185
-0.150
-0.075
0.000
0.115
0.250
0.405
0.545
0.635
0.660
0.560
0.350
0.045
-0.260
-0.485
-0.635
-0.680
-0.675
-0.640
-0.585
-0.530
-0.495
-0.470
-0.490
-0.515
-0.530
-0.540
-0.505
-0.455
-0.415
-0.380
-0.375
-0.385
-0.400
-0.405
-0.425
-0.415
-0.410
-0.415
-0.415
-0.405
-0.385
-0.345
-0.310
-0.275
-0.260
-0.250
-0.245
-0.255
-0.275
-0.285
-0.285
-0.285
-0.270
-0.265
-0.255
-0.245
-0.250
-0.255
-0.260
-0.260
-0.275
-0.270
-0.265
-0.270
-0.260
-0.270
-0.250
-0.250
-0.235
-0.225
-0.235
-0.230
-0.240
-0.245
-0.235
-0.235
-0.230
-0.225
-0.220
-0.220
-0.220
-0.215
-0.215
-0.220
-0.215
-0.205
-0.180
-0.175
-0.165
-0.150
-0.125
-0.110
-0.115
-0.090
-0.085
-0.090
-0.085
-0.080
-0.070
-0.070
-0.035
-0.015
0.000
0.020
0.025
0.035
0.015
-0.005
-0.020
-0.025
0.000
0.010
0.015
0.025
0.020
0.030
0.015
0.000
-0.020
-0.025
-0.055
-0.060
-0.080
-0.095
-0.115
-0.135
-0.140
-0.165
-0.190
-0.180
-0.195
-0.200
-0.225
-0.235
-0.235
-0.230
-0.235
-0.250
-0.250
-0.270
-0.275
-0.275
-0.290
-0.295
-0.285
-0.305
-0.305
-0.315
-0.300
-0.295
-0.285
-0.280
-0.275
-0.275
-0.280
-0.295
-0.315
-0.320
-0.315
-0.305
-0.280
-0.280
-0.275
-0.285
-0.275
-0.280
-0.285
-0.300
-0.295
-0.305
-0.310
-0.315
-0.325
-0.325
-0.305
-0.300
-0.305
-0.310
-0.330
-0.310
-0.310
-0.310
-0.325
-0.310
-0.305
-0.300
-0.295
-0.295
-0.285
-0.285
-0.265
-0.265
-0.255
-0.255
-0.250
-0.250
-0.250
-0.250
-0.260
-0.260
-0.275
-0.280
-0.280
-0.305
-0.300
-0.305
-0.300
-0.290
-0.285
-0.285
-0.290
-0.285
-0.265
-0.265
-0.255
-0.260
-0.270
-0.285
-0.290
-0.285
-0.285
-0.275
-0.275
-0.270
-0.270
-0.265
-0.265
-0.265
-0.255
-0.260
-0.265
-0.260
-0.265
-0.265
-0.265
-0.270
-0.270
-0.270
-0.270
-0.275
-0.275
-0.270
-0.295
-0.260
-0.265
-0.250
-0.230
-0.225
-0.230
-0.225
-0.235
-0.245
-0.255
-0.260
-0.255
-0.255
-0.230
-0.230
-0.210
-0.180
-0.165
-0.115
-0.065
0.015
0.125
0.265
0.415
0.545
0.640
0.635
0.500
0.245
-0.065
-0.340
-0.530
-0.645
-0.690
-0.675
-0.625
-0.565
-0.510
-0.465
-0.435
-0.435
-0.450
-0.475
-0.470
-0.455
-0.425
-0.400
-0.365
-0.360
-0.380
-0.405
-0.435
-0.445
-0.450
-0.445
-0.430
-0.415
-0.385
-0.365
-0.335
-0.300
-0.270
-0.235
-0.220
-0.210
-0.215
-0.220
-0.230
-0.225
-0.230
-0.230
-0.235
-0.250
-0.255
-0.250
-0.245
-0.225
-0.230
-0.215
-0.210
-0.225
-0.230
-0.245
-0.250
-0.250
-0.250
-0.240
-0.235
-0.225
-0.215
-0.215
-0.225
-0.215
-0.225
-0.245
-0.230
-0.225
-0.205
-0.200
-0.185
-0.170
-0.160
-0.155
-0.170
-0.165
-0.185
-0.180
-0.160
-0.145
-0.125
-0.105
-0.120
-0.090
-0.085
-0.075
-0.070
-0.065
-0.060
-0.045
-0.035
-0.040
-0.020
0.000
0.005
0.020
0.025
0.025
0.040
0.050
0.045
0.040
0.045
0.060
0.075
0.105
0.090
0.110
0.085
0.045
0.035
0.010
-0.020
-0.050
-0.050
-0.055
-0.055
-0.065
-0.060
-0.075
-0.090
-0.105
-0.135
-0.150
-0.170
-0.175
-0.185
-0.200
-0.200
-0.215
-0.200
-0.210
-0.215
-0.220
-0.235
-0.245
-0.260
-0.270
-0.260
-0.255
-0.250
-0.245
-0.255
-0.240
-0.260
-0.255
-0.265
-0.270
-0.275
-0.270
-0.270
-0.260
-0.260
-0.255
-0.255
-0.260
-0.260
-0.250
-0.260
-0.255
-0.255
-0.260
-0.275
-0.275
-0.265
-0.280
-0.300
-0.295
-0.305
-0.315
-0.330
-0.325
-0.320
-0.320
-0.310
-0.295
-0.285
-0.285
-0.275
-0.245
-0.250
-0.250
-0.255
-0.270
-0.275
-0.290
-0.275
-0.275
-0.255
-0.245
-0.240
-0.240
-0.235
-0.230
-0.235
-0.240
-0.245
-0.250
-0.240
-0.245
-0.245
-0.255
-0.245
-0.255
-0.265
-0.260
-0.260
-0.265
-0.270
-0.260
-0.260
-0.255
-0.250
-0.250
-0.245
-0.245
-0.245
-0.255
-0.265
-0.270
-0.275
-0.280
-0.280
-0.270
-0.270
-0.255
-0.240
-0.230
-0.220
-0.230
-0.245
-0.250
-0.250
-0.260
-0.270
-0.265
-0.270
-0.275
-0.270
-0.235
-0.235
-0.230
-0.240
-0.230
-0.240
-0.240
-0.245
-0.240
-0.230
-0.220
-0.210
-0.215
-0.210
-0.195
-0.180
-0.150
-0.115
-0.055
0.030
0.150
0.290
0.430
0.565
0.650
0.625
0.470
0.210
-0.100
-0.370
-0.560
-0.665
-0.690
-0.665
-0.620
-0.555
-0.530
-0.510
-0.500
-0.495
-0.500
-0.500
-0.500
-0.455
-0.425
-0.385
-0.360
-0.370
-0.380
-0.400
-0.415
-0.415
-0.430
-0.430
-0.405
-0.385
-0.360
-0.325
-0.295
-0.270
-0.255
-0.250
-0.245
-0.245
-0.245
-0.240
-0.245
-0.250
-0.255
-0.260
-0.245
-0.245
-0.240
-0.235
-0.235
-0.220
-0.215
-0.230
-0.235
-0.235
-0.240
-0.245
-0.240
-0.230
-0.215
-0.200
-0.195
-0.195
-0.205
-0.210
-0.220
-0.230
-0.215
-0.225
-0.200
-0.185
-0.165
-0.170
-0.175
-0.165
-0.160
-0.155
-0.155
-0.155
-0.155
-0.145
-0.135
-0.120
-0.100
-0.090
-0.085
-0.085
-0.095
-0.075
-0.070
-0.055
-0.035
-0.020
0.000
0.010
0.040
0.040
0.055
0.040
0.050
0.055
0.050
0.055
0.055
0.050
0.075
0.065
0.050
0.055
0.025
0.020
0.015
-0.005
-0.025
-0.050
-0.080
-0.080
-0.090
-0.095
-0.105
-0.105
-0.130
-0.150
-0.170
-0.185
-0.220
-0.215
-0.210
-0.195
-0.200
-0.210
-0.205
-0.220
-0.215
-0.230
-0.235
-0.250
-0.265
-0.280
-0.285
-0.280
-0.265
-0.265
-0.265
-0.260
-0.260
-0.255
-0.265
-0.280
-0.275
-0.270
-0.275
-0.275
-0.265
-0.275
-0.275
-0.285
-0.290
-0.300
-0.285
-0.295
-0.290
-0.275
-0.275
-0.245
-0.240
-0.235
-0.250
-0.270
-0.280
-0.285
-0.290
-0.300
-0.310
-0.310
-0.305
-0.300
-0.305
-0.290
-0.280
-0.275
-0.280
-0.280
-0.280
-0.280
-0.280
-0.275
-0.285
-0.265
-0.265
-0.250
-0.230
-0.230
-0.225
-0.225
-0.230
-0.245
-0.260
-0.260
-0.270
-0.260
-0.260
-0.245
-0.240
-0.245
-0.250
-0.260
-0.270
-0.285
-0.290
-0.290
-0.280
-0.260
-0.275
-0.250
-0.240
-0.245
-0.245
-0.255
-0.245
-0.250
-0.260
-0.250
-0.250
-0.250
-0.260
-0.250
-0.245
-0.255
-0.240
-0.230
-0.245
-0.255
-0.285
-0.280
-0.285
-0.285
-0.285
-0.265
-0.230
-0.220
-0.215
-0.220
-0.235
-0.250
-0.280
-0.255
-0.260
-0.260
-0.250
-0.250
-0.250
-0.245
-0.235
-0.240
-0.225
-0.225
-0.220
-0.220
-0.215
-0.190
-0.160
-0.140
-0.115
-0.075
-0.005
0.075
0.185
0.295
0.400
0.495
0.535
0.500
0.365
0.130
-0.130
-0.370
-0.540
-0.625
-0.655
-0.640
-0.620
-0.570
-0.545
-0.510
-0.480
-0.465
-0.470
-0.485
-0.470
-0.450
-0.425
-0.410
-0.385
-0.380
-0.385
-0.385
-0.400
-0.395
-0.410
-0.395
-0.390
-0.390
-0.360
-0.340
-0.300
-0.290
-0.250
-0.230
-0.220
-0.210
-0.210
-0.220
-0.220
-0.235
-0.245
-0.265
-0.270
-0.265
-0.260
-0.245
-0.250
-0.240
-0.220
-0.215
-0.215
-0.220
-0.225
-0.215
-0.225
-0.230
-0.240
-0.245
-0.230
-0.230
-0.220
-0.205
-0.195
-0.200
-0.220
-0.220
-0.235
-0.230
-0.220
-0.200
-0.180
-0.155
-0.145
-0.140
-0.145
-0.135
-0.145
-0.140
-0.150
-0.140
-0.130
-0.120
-0.090
-0.075
-0.060
-0.055
-0.045
-0.030
-0.015
-0.010
-0.005
0.005
0.015
0.020
0.030
0.035
0.030
0.030
0.020
0.015
0.030
0.030
0.025
0.025
0.015
0.020
0.025
0.030
0.025
0.010
0.000
-0.030
-0.050
-0.075
-0.100
-0.110
-0.135
-0.135
-0.160
-0.170
-0.170
-0.180
-0.175
-0.185
-0.200
-0.190
-0.215
-0.220
-0.220
-0.235
-0.235
-0.235
-0.245
-0.250
-0.255
-0.265
-0.275
-0.275
-0.285
-0.295
-0.290
-0.275
-0.260
-0.250
-0.240
-0.255
-0.265
-0.265
-0.275
-0.285
-0.290
-0.270
-0.270
-0.255
-0.265
-0.250
-0.265
-0.250
-0.250
-0.250
-0.235
-0.235
-0.240
-0.245
-0.235
-0.230
-0.230
-0.220
-0.215
-0.220
-0.220
-0.225
-0.230
-0.245
-0.250
-0.250
-0.240
-0.250
-0.230
-0.225
-0.205
-0.200
-0.190
-0.195
-0.210
-0.225
-0.250
-0.255
-0.260
-0.260
-0.250
-0.250
-0.245
-0.230
-0.235
-0.240
-0.240
-0.245
-0.245
-0.235
-0.230
-0.230
-0.225
-0.230
-0.240
-0.235
-0.240
-0.240
-0.245
-0.250
-0.260
-0.270
-0.285
-0.295
-0.265
-0.250
-0.250
-0.245
-0.245
-0.245
-0.245
-0.255
-0.280
-0.275
-0.280
-0.280
-0.285
-0.285
-0.285
-0.285
-0.285
-0.285
-0.275
-0.275
-0.270
-0.265
-0.255
-0.270
-0.255
-0.255
-0.260
-0.255
-0.260
-0.260
-0.260
-0.275
-0.280
-0.280
-0.280
-0.265
-0.265
-0.250
-0.250
-0.250
-0.245
-0.245
-0.245
-0.245
-0.265
-0.260
-0.270
-0.265
-0.250
-0.250
-0.240
-0.260
-0.260
-0.260
-0.260
-0.270
-0.265
-0.250
-0.250
-0.245
-0.240
-0.240
-0.240
-0.255
-0.250
-0.255
-0.265
-0.270
-0.270
-0.275
-0.270
-0.260
-0.265
-0.245
-0.235
-0.235
-0.225
-0.230
-0.245
-0.260
-0.280
-0.295
-0.295
-0.275
-0.265
-0.265
-0.250
-0.265
-0.270
-0.275
-0.280
-0.275
-0.270
-0.260
-0.255
-0.250
-0.230
-0.230
-0.230
-0.220
-0.230
-0.225
-0.250
-0.245
-0.255
-0.265
-0.270
-0.270
-0.270
-0.285
-0.255
-0.245
-0.230
-0.220
-0.220
-0.235
-0.235
-0.245
-0.255
-0.260
-0.245
-0.240
-0.235
-0.250
-0.260
-0.265
-0.270
-0.270
-0.265
-0.260
-0.245
-0.235
-0.235
-0.230
-0.240
-0.245
-0.255
-0.255
-0.260
-0.265
-0.265
-0.275
-0.275
-0.275
-0.275
-0.265
-0.255
-0.250
-0.260
-0.255
-0.265
-0.265
-0.270
-0.275
-0.275
-0.280
-0.255
-0.255
-0.250
-0.245
-0.255
-0.265
-0.275
-0.285
-0.300
-0.295
-0.300
-0.280
-0.250
-0.245
-0.235
-0.235
-0.265
-0.260
-0.270
-0.270
-0.280
-0.270
-0.285
-0.270
-0.275
-0.265
-0.260
-0.260
-0.260
-0.260
-0.255
-0.270
-0.270
-0.270
-0.275
-0.275
-0.275
-0.280
-0.265
-0.275
-0.265
-0.275
-0.275
-0.275
-0.280
-0.275
-0.280
-0.265
-0.260
-0.245
-0.240
-0.250
-0.250
-0.265
-0.265
-0.280
-0.285
-0.280
-0.280
-0.275
-0.275
-0.270
-0.255
-0.260
-0.250
-0.235
-0.260
-0.240
-0.235
-0.240
-0.250
-0.250
-0.255
-0.265
-0.255
-0.255
-0.255
-0.250
-0.250
-0.255
-0.255
-0.250
-0.255
-0.250
-0.235
-0.245
-0.245
-0.240
-0.245
-0.240
-0.255
-0.260
-0.255
-0.250
-0.245
-0.245
-0.250
-0.255
-0.230
-0.235
-0.230
-0.220
-0.225
-0.215
-0.220
-0.245
-0.250
-0.260
-0.270
-0.270
-0.270
-0.265
-0.255
-0.265
-0.265
-0.270
-0.280
-0.275
-0.270
-0.270
-0.240
-0.240
-0.230
-0.235
-0.235
-0.245
-0.260
-0.265
-0.280
-0.280
-0.280
-0.280
-0.275
-0.270
-0.265
-0.265
-0.260
-0.255
-0.265
-0.265
-0.260
-0.270
-0.260
-0.255
-0.255
-0.245
-0.245
-0.240
-0.260
-0.265
-0.275
-0.280
-0.285
-0.280
-0.280
-0.270
-0.265
-0.245
-0.240
-0.250
-0.250
-0.260
-0.275
-0.275
-0.290
-0.300
-0.300
-0.310
-0.305
-0.290
-0.275
-0.275
-0.260
-0.260
-0.260
-0.270
-0.285
-0.295
-0.295
-0.285
-0.275
-0.265
-0.265
-0.270
-0.265
-0.265
-0.275
-0.285
-0.295
-0.290
-0.285
-0.285
-0.260
-0.250
-0.245
-0.255
-0.260
-0.265
-0.280
-0.280
-0.280
-0.280
-0.280
-0.270
-0.260
-0.260
-0.255
-0.245
-0.245
-0.245
-0.255
-0.260
-0.270
-0.275
-0.275
-0.275
-0.270
-0.265
-0.245
-0.250
-0.255
-0.270
-0.280
-0.285
-0.275
-0.275
-0.275
-0.270
-0.255
-0.260
-0.235
-0.245
-0.255
-0.265
-0.265
-0.280
-0.290
-0.285
-0.285
-0.275
-0.275
-0.265
-0.260
-0.245
-0.245
-0.245
-0.240
-0.240
-0.260
-0.260
-0.265
-0.260
-0.255
-0.260
-0.250
-0.250
-0.255
-0.250
-0.250
-0.255
-0.250
-0.255
-0.230
-0.210
-0.200
-0.175
-0.175
-0.180
-0.165
-0.160
-0.170
-0.175
-0.175
-0.185
-0.190
-0.190
-0.180
-0.170
-0.160
-0.180
-0.185
-0.170
-0.170
-0.185
-0.185
-0.200
-0.210
-0.215
-0.220
-0.215
-0.215
-0.205
-0.205
-0.220
-0.220
-0.225
-0.235
-0.265
-0.265
-0.250
-0.260
-0.255
-0.260
-0.265
-0.270
-0.275
-0.285
-0.290
-0.280
-0.280
-0.275
-0.270
-0.265
-0.265
-0.255
-0.250
-0.245
-0.235
-0.235
-0.220
-0.235
-0.240
-0.255
-0.265
-0.270
-0.265
-0.265
-0.240
-0.245
-0.240
-0.255
-0.260
-0.255
-0.250
-0.230
-0.185
-0.145
-0.100
-0.035
0.055
0.170
0.300
0.430
0.545
0.630
0.630
0.530
0.315
0.035
-0.215
-0.410
-0.540
-0.600
-0.605
-0.600
-0.570
-0.525
-0.505
-0.480
-0.475
-0.490
-0.500
-0.495
-0.485
-0.460
-0.430
-0.395
-0.380
-0.420
-0.425
-0.445
-0.460
-0.460
-0.430
-0.395
-0.380
-0.355
-0.335
-0.325
-0.315
-0.305
-0.295
-0.270
-0.255
-0.245
-0.255
-0.255
-0.250
-0.250
-0.255
-0.245
-0.250
-0.265
-0.260
-0.260
-0.255
-0.250
-0.245
-0.235
-0.235
-0.240
-0.245
-0.250
-0.250
-0.250
-0.250
-0.250
-0.240
-0.230
-0.225
-0.200
-0.195
-0.200
-0.200
-0.205
-0.210
-0.220
-0.225
-0.220
-0.210
-0.190
-0.190
-0.175
-0.185
-0.185
-0.180
-0.175
-0.160
-0.155
-0.140
-0.135
-0.130
-0.125
-0.115
-0.105
-0.105
-0.090
-0.085
-0.075
-0.085
-0.085
-0.070
-0.060
-0.040
-0.025
0.000
0.025
0.040
0.035
0.040
0.045
0.040
0.040
0.030
0.030
0.020
0.030
0.035
0.055
0.045
0.040
0.025
0.020
0.010
-0.010
-0.025
-0.030
-0.035
-0.040
-0.055
-0.065
-0.080
-0.090
-0.105
-0.130
-0.150
-0.170
-0.160
-0.170
-0.175
-0.175
-0.180
-0.180
-0.180
-0.185
-0.185
-0.195
-0.185
-0.220
-0.230
-0.230
-0.225
-0.225
-0.225
-0.210
-0.205
-0.210
-0.205
-0.210
-0.220
-0.220
-0.215
-0.220
-0.220
-0.200
-0.215
-0.200
-0.190
-0.195
-0.205
-0.195
-0.210
-0.220
-0.225
-0.235
-0.235
-0.215
-0.190
-0.170
-0.175
-0.170
-0.180
-0.195
-0.210
-0.200
-0.200
-0.200
-0.190
-0.205
-0.215
-0.210
-0.210
-0.220
-0.210
-0.210
-0.200
-0.210
-0.215
-0.200
-0.210
-0.195
-0.185
-0.200
-0.195
-0.205
-0.210
-0.220
-0.225
-0.230
-0.240
-0.235
-0.235
-0.205
-0.210
-0.185
-0.185
-0.195
-0.200
-0.235
-0.245
-0.255
-0.255
-0.245
-0.230
-0.230
-0.220
-0.225
-0.235
-0.235
-0.230
-0.235
-0.225
-0.230
-0.225
-0.245
-0.255
-0.240
-0.235
-0.230
-0.230
-0.230
-0.230
-0.230
-0.240
-0.240
-0.250
-0.260
-0.255
-0.240
-0.230
-0.225
-0.215
-0.225
-0.235
-0.250
-0.240
-0.250
-0.265
-0.265
-0.265
-0.255
-0.245
-0.225
-0.235
-0.235
-0.235
-0.245
-0.250
-0.240
-0.235
-0.240
-0.235
-0.225
-0.240
-0.240
-0.245
-0.270
-0.260
-0.265
-0.255
-0.260
-0.255
-0.240
-0.245
-0.235
-0.235
-0.215
-0.225
-0.230
-0.230
-0.255
-0.250
-0.255
-0.265
-0.250
-0.250
-0.250
-0.230
-0.230
-0.225
-0.210
-0.205
-0.205
-0.220
-0.220
-0.225
-0.225
-0.240
-0.245
-0.235
-0.220
-0.220
-0.220
-0.225
-0.235
-0.245
-0.245
-0.245
-0.230
-0.220
-0.215
-0.205
-0.200
-0.205
-0.215
-0.220
-0.230
-0.235
-0.235
-0.240
-0.235
-0.235
-0.230
-0.225
-0.215
-0.225
-0.220
-0.205
-0.210
-0.225
-0.210
-0.225
-0.225
-0.225
-0.225
-0.205
-0.195
-0.200
-0.210
-0.215
-0.235
-0.230
-0.225
-0.225
-0.215
-0.205
-0.205
-0.195
-0.190
-0.190
-0.210
-0.205
-0.225
-0.235
-0.235
-0.240
-0.240
-0.240
-0.230
-0.220
-0.200
-0.200
-0.200
-0.215
-0.210
-0.210
-0.220
-0.225
-0.215
-0.230
-0.220
-0.225
-0.220
-0.225
-0.240
-0.255
-0.255
-0.260
-0.255
-0.240
-0.230
-0.235
-0.220
-0.210
-0.200
-0.205
-0.200
-0.185
-0.180
-0.170
-0.175
-0.170
-0.165
-0.150
-0.155
-0.140
-0.135
