Source,MIT-BIH Arrhythmia Database record 100 (normal sinus rhythm) - PhysioNet - ODC-By 1.0
Start,0.0 s
Lead,MLII
Unit,mV
Sample Rate,360 hertz

-0.145
-0.145
-0.145
-0.145
-0.145
-0.145
-0.145
-0.145
-0.120
-0.135
-0.145
-0.150
-0.160
-0.155
-0.160
-0.175
-0.180
-0.185
-0.170
-0.155
-0.175
-0.180
-0.190
-0.180
-0.155
-0.135
-0.155
-0.190
-0.205
-0.235
-0.225
-0.245
-0.250
-0.260
-0.275
-0.275
-0.275
-0.265
-0.255
-0.265
-0.275
-0.290
-0.290
-0.290
-0.290
-0.285
-0.295
-0.305
-0.285
-0.275
-0.275
-0.280
-0.285
-0.305
-0.290
-0.300
-0.280
-0.290
-0.300
-0.315
-0.320
-0.335
-0.360
-0.385
-0.385
-0.405
-0.455
-0.485
-0.485
-0.425
-0.330
-0.220
-0.070
0.120
0.375
0.620
0.780
0.840
0.765
0.520
0.170
-0.165
-0.365
-0.435
-0.425
-0.370
-0.330
-0.325
-0.335
-0.345
-0.330
-0.325
-0.315
-0.310
-0.320
-0.335
-0.340
-0.325
-0.345
-0.335
-0.330
-0.335
-0.330
-0.325
-0.330
-0.330
-0.345
-0.355
-0.335
-0.325
-0.305
-0.320
-0.320
-0.330
-0.340
-0.335
-0.340
-0.345
-0.355
-0.355
-0.340
-0.330
-0.330
-0.330
-0.340
-0.350
-0.325
-0.325
-0.330
-0.330
-0.335
-0.335
-0.340
-0.330
-0.340
-0.350
-0.355
-0.350
-0.345
-0.330
-0.320
-0.335
-0.330
-0.345
-0.330
-0.335
-0.335
-0.345
-0.345
-0.355
-0.340
-0.340
-0.335
-0.330
-0.350
-0.350
-0.345
-0.335
-0.335
-0.335
-0.350
-0.355
-0.355
-0.345
-0.345
-0.335
-0.350
-0.360
-0.360
-0.360
-0.365
-0.360
-0.370
-0.385
-0.370
-0.360
-0.355
-0.360
-0.375
-0.375
-0.365
-0.365
-0.360
-0.360
-0.365
-0.370
-0.355
-0.330
-0.325
-0.325
-0.335
-0.340
-0.315
-0.300
-0.300
-0.290
-0.295
-0.290
-0.285
-0.275
-0.255
-0.250
-0.250
-0.265
-0.255
-0.245
-0.230
-0.245
-0.245
-0.255
-0.255
-0.240
-0.250
-0.255
-0.245
-0.255
-0.250
-0.250
-0.265
-0.260
-0.260
-0.265
-0.270
-0.265
-0.260
-0.275
-0.280
-0.290
-0.275
-0.270
-0.260
-0.280
-0.280
-0.285
-0.275
-0.275
-0.265
-0.270
-0.285
-0.290
-0.280
-0.275
-0.285
-0.280
-0.300
-0.300
-0.305
-0.295
-0.300
-0.310
-0.310
-0.305
-0.295
-0.285
-0.285
-0.290
-0.295
-0.310
-0.290
-0.295
-0.300
-0.305
-0.310
-0.325
-0.310
-0.300
-0.290
-0.310
-0.325
-0.330
-0.315
-0.300
-0.305
-0.310
-0.320
-0.330
-0.325
-0.315
-0.310
-0.305
-0.305
-0.310
-0.300
-0.305
-0.290
-0.300
-0.300
-0.305
-0.305
-0.290
-0.280
-0.295
-0.305
-0.315
-0.305
-0.295
-0.290
-0.280
-0.270
-0.275
-0.275
-0.270
-0.250
-0.250
-0.255
-0.225
-0.220
-0.205
-0.200
-0.205
-0.215
-0.230
-0.220
-0.225
-0.225
-0.225
-0.230
-0.235
-0.240
-0.235
-0.220
-0.210
-0.205
-0.245
-0.285
-0.285
-0.300
-0.310
-0.330
-0.330
-0.325
-0.315
-0.320
-0.315
-0.325
-0.340
-0.345
-0.340
-0.340
-0.350
-0.345
-0.355
-0.330
-0.335
-0.330
-0.320
-0.345
-0.355
-0.340
-0.330
-0.325
-0.330
-0.350
-0.365
-0.360
-0.380
-0.425
-0.445
-0.475
-0.510
-0.535
-0.505
-0.415
-0.300
-0.160
-0.015
0.235
0.490
0.720
0.875
0.940
0.905
0.755
0.490
0.165
-0.110
-0.270
-0.390
-0.450
-0.475
-0.455
-0.425
-0.390
-0.390
-0.385
-0.390
-0.380
-0.380
-0.380
-0.395
-0.385
-0.385
-0.385
-0.375
-0.395
-0.410
-0.410
-0.400
-0.395
-0.390
-0.405
-0.395
-0.385
-0.375
-0.390
-0.390
-0.405
-0.410
-0.410
-0.390
-0.390
-0.395
-0.405
-0.415
-0.400
-0.410
-0.405
-0.410
-0.415
-0.410
-0.400
-0.400
-0.395
-0.390
-0.405
-0.410
-0.390
-0.390
-0.385
-0.385
-0.410
-0.405
-0.395
-0.390
-0.375
-0.390
-0.395
-0.410
-0.400
-0.390
-0.390
-0.385
-0.405
-0.415
-0.415
-0.400
-0.395
-0.405
-0.415
-0.420
-0.420
-0.410
-0.415
-0.425
-0.420
-0.435
-0.430
-0.430
-0.420
-0.430
-0.450
-0.455
-0.450
-0.435
-0.445
-0.450
-0.455
-0.470
-0.460
-0.455
-0.450
-0.455
-0.470
-0.475
-0.460
-0.450
-0.445
-0.440
-0.435
-0.440
-0.410
-0.395
-0.370
-0.365
-0.360
-0.365
-0.340
-0.325
-0.315
-0.320
-0.330
-0.330
-0.320
-0.310
-0.300
-0.300
-0.320
-0.320
-0.315
-0.305
-0.305
-0.295
-0.320
-0.330
-0.305
-0.310
-0.300
-0.300
-0.320
-0.325
-0.310
-0.305
-0.315
-0.305
-0.315
-0.315
-0.310
-0.295
-0.290
-0.305
-0.310
-0.320
-0.315
-0.300
-0.315
-0.315
-0.315
-0.330
-0.315
-0.320
-0.315
-0.325
-0.335
-0.340
-0.335
-0.335
-0.330
-0.325
-0.345
-0.350
-0.345
-0.335
-0.330
-0.330
-0.345
-0.345
-0.345
-0.320
-0.330
-0.335
-0.340
-0.355
-0.335
-0.330
-0.330
-0.335
-0.355
-0.360
-0.355
-0.350
-0.340
-0.345
-0.345
-0.345
-0.345
-0.330
-0.330
-0.335
-0.345
-0.350
-0.350
-0.340
-0.330
-0.345
-0.345
-0.355
-0.350
-0.340
-0.330
-0.340
-0.340
-0.340
-0.330
-0.335
-0.330
-0.335
-0.345
-0.345
-0.340
-0.330
-0.315
-0.295
-0.300
-0.295
-0.285
-0.275
-0.265
-0.265
-0.265
-0.255
-0.250
-0.240
-0.225
-0.215
-0.240
-0.245
-0.240
-0.245
-0.235
-0.245
-0.250
-0.275
-0.275
-0.265
-0.250
-0.225
-0.220
-0.230
-0.265
-0.270
-0.280
-0.285
-0.305
-0.320
-0.340
-0.330
-0.335
-0.335
-0.355
-0.370
-0.360
-0.345
-0.350
-0.355
-0.365
-0.375
-0.380
-0.370
-0.365
-0.365
-0.380
-0.385
-0.380
-0.375
-0.355
-0.370
-0.390
-0.405
-0.410
-0.435
-0.465
-0.490
-0.520
-0.555
-0.570
-0.525
-0.405
-0.250
-0.090
0.120
0.410
0.690
0.885
0.960
0.850
0.520
0.050
-0.320
-0.500
-0.505
-0.445
-0.415
-0.395
-0.390
-0.395
-0.390
-0.395
-0.405
-0.395
-0.405
-0.390
-0.395
-0.395
-0.410
-0.405
-0.400
-0.400
-0.415
-0.405
-0.420
-0.415
-0.405
-0.405
-0.420
-0.420
-0.435
-0.420
-0.410
-0.410
-0.405
-0.425
-0.430
-0.420
-0.415
-0.410
-0.410
-0.425
-0.420
-0.400
-0.395
-0.400
-0.400
-0.395
-0.415
-0.405
-0.390
-0.400
-0.400
-0.415
-0.425
-0.425
-0.415
-0.415
-0.410
-0.425
-0.425
-0.420
-0.415
-0.400
-0.400
-0.410
-0.425
-0.410
-0.405
-0.395
-0.400
-0.400
-0.405
-0.385
-0.400
-0.390
-0.390
-0.400
-0.415
-0.405
-0.405
-0.410
-0.415
-0.420
-0.420
-0.425
-0.415
-0.415
-0.410
-0.435
-0.430
-0.435
-0.420
-0.420
-0.420
-0.420
-0.425
-0.425
-0.415
-0.395
-0.395
-0.390
-0.375
-0.360
-0.340
-0.335
-0.330
-0.335
-0.335
-0.325
-0.320
-0.305
-0.305
-0.315
-0.310
-0.305
-0.300
-0.300
-0.300
-0.310
-0.310
-0.310
-0.315
-0.300
-0.305
-0.315
-0.320
-0.325
-0.310
-0.305
-0.305
-0.320
-0.325
-0.305
-0.310
-0.295
-0.310
-0.325
-0.330
-0.320
-0.320
-0.320
-0.325
-0.350
-0.350
-0.340
-0.335
-0.330
-0.335
-0.340
-0.360
-0.350
-0.350
-0.355
-0.360
-0.355
-0.365
-0.355
-0.350
-0.340
-0.355
-0.350
-0.365
-0.365
-0.350
-0.355
-0.350
-0.370
-0.380
-0.370
-0.360
-0.365
-0.360
-0.365
-0.380
-0.370
-0.365
-0.350
-0.350
-0.350
-0.370
-0.365
-0.345
-0.345
-0.340
-0.355
-0.365
-0.360
-0.355
-0.355
-0.355
-0.375
-0.385
-0.355
-0.360
-0.355
-0.360
-0.360
-0.370
-0.360
-0.345
-0.355
-0.345
-0.345
-0.345
-0.340
-0.310
-0.305
-0.305
-0.310
-0.305
-0.290
-0.285
-0.275
-0.280
-0.280
-0.275
-0.265
-0.255
-0.245
-0.260
-0.265
-0.275
-0.280
-0.265
-0.270
-0.275
-0.280
-0.275
-0.280
-0.275
-0.265
-0.255
-0.240
-0.260
-0.280
-0.310
-0.310
-0.345
-0.360
-0.380
-0.385
-0.380
-0.370
-0.375
-0.385
-0.390
-0.395
-0.385
-0.385
-0.385
-0.395
-0.405
-0.400
-0.375
-0.375
-0.390
-0.395
-0.415
-0.405
-0.400
-0.390
-0.405
-0.425
-0.460
-0.475
-0.505
-0.510
-0.525
-0.540
-0.600
-0.645
-0.630
-0.575
-0.495
-0.385
-0.270
-0.115
0.090
0.370
0.635
0.810
0.860
0.770
0.475
0.065
-0.305
-0.500
-0.520
-0.475
-0.410
-0.390
-0.390
-0.400
-0.410
-0.405
-0.385
-0.390
-0.395
-0.405
-0.410
-0.405
-0.400
-0.390
-0.395
-0.410
-0.415
-0.410
-0.395
-0.405
-0.410
-0.405
-0.405
-0.410
-0.390
-0.385
-0.390
-0.395
-0.400
-0.400
-0.400
-0.395
-0.395
-0.405
-0.405
-0.400
-0.395
-0.385
-0.375
-0.385
-0.395
-0.390
-0.385
-0.375
-0.385
-0.395
-0.395
-0.385
-0.375
-0.375
-0.385
-0.395
-0.390
-0.390
-0.365
-0.375
-0.385
-0.395
-0.380
-0.385
-0.375
-0.380
-0.390
-0.380
-0.375
-0.375
-0.375
-0.375
-0.380
-0.390
-0.390
-0.365
-0.370
-0.375
-0.385
-0.390
-0.390
-0.375
-0.365
-0.385
-0.380
-0.390
-0.375
-0.375
-0.365
-0.370
-0.385
-0.395
-0.385
-0.385
-0.370
-0.365
-0.370
-0.375
-0.350
-0.335
-0.320
-0.315
-0.320
-0.325
-0.315
-0.295
-0.285
-0.300
-0.295
-0.285
-0.285
-0.280
-0.270
-0.280
-0.290
-0.295
-0.295
-0.290
-0.280
-0.290
-0.295
-0.310
-0.295
-0.285
-0.280
-0.275
-0.295
-0.305
-0.300
-0.295
-0.295
-0.285
-0.300
-0.305
-0.300
-0.295
-0.300
-0.305
-0.315
-0.310
-0.315
-0.295
-0.300
-0.310
-0.330
-0.340
-0.330
-0.320
-0.320
-0.315
-0.325
-0.335
-0.330
-0.315
-0.320
-0.320
-0.330
-0.345
-0.340
-0.335
-0.330
-0.335
-0.345
-0.350
-0.345
-0.340
-0.335
-0.335
-0.330
-0.335
-0.340
-0.335
-0.320
-0.340
-0.340
-0.350
-0.365
-0.360
-0.345
-0.345
-0.350
-0.350
-0.350
-0.340
-0.340
-0.345
-0.345
-0.380
-0.360
-0.360
-0.345
-0.345
-0.350
-0.355
-0.345
-0.330
-0.330
-0.335
-0.335
-0.340
-0.330
-0.320
-0.290
-0.290
-0.300
-0.305
-0.285
-0.280
-0.275
-0.280
-0.275
-0.270
-0.265
-0.250
-0.230
-0.245
-0.240
-0.255
-0.255
-0.245
-0.235
-0.255
-0.265
-0.260
-0.255
-0.270
-0.265
-0.280
-0.255
-0.250
-0.245
-0.265
-0.280
-0.300
-0.315
-0.325
-0.335
-0.345
-0.330
-0.335
-0.345
-0.360
-0.350
-0.340
-0.335
-0.345
-0.360
-0.365
-0.375
-0.370
-0.365
-0.365
-0.380
-0.375
-0.375
-0.365
-0.370
-0.360
-0.370
-0.380
-0.365
-0.360
-0.350
-0.355
-0.370
-0.385
-0.395
-0.430
-0.445
-0.485
-0.515
-0.565
-0.555
-0.475
-0.355
-0.220
-0.055
0.185
0.475
0.705
0.820
0.780
0.535
0.145
-0.200
-0.420
-0.500
-0.480
-0.450
-0.410
-0.400
-0.390
-0.390
-0.400
-0.405
-0.425
-0.425
-0.405
-0.395
-0.405
-0.405
-0.415
-0.405
-0.385
-0.390
-0.395
-0.395
-0.395
-0.395
-0.385
-0.390
-0.390
-0.400
-0.425
-0.410
-0.400
-0.395
-0.400
-0.405
-0.425
-0.415
-0.405
-0.405
-0.405
-0.410
-0.415
-0.405
-0.420
-0.405
-0.410
-0.410
-0.420
-0.415
-0.405
-0.395
-0.395
-0.395
-0.400
-0.395
-0.395
-0.405
-0.405
-0.420
-0.435
-0.415
-0.405
-0.395
-0.390
-0.415
-0.405
-0.405
-0.400
-0.395
-0.395
-0.405
-0.420
-0.415
-0.400
-0.395
-0.400
-0.405
-0.425
-0.425
-0.425
-0.420
-0.425
-0.450
-0.445
-0.450
-0.435
-0.445
-0.470
-0.455
-0.460
-0.440
-0.435
-0.425
-0.430
-0.445
-0.450
-0.445
-0.430
-0.420
-0.410
-0.425
-0.420
-0.405
-0.380
-0.370
-0.365
-0.365
-0.365
-0.345
-0.330
-0.315
-0.305
-0.305
-0.320
-0.310
-0.310
-0.305
-0.310
-0.315
-0.320
-0.315
-0.305
-0.305
-0.295
-0.310
-0.320
-0.310
-0.315
-0.295
-0.300
-0.305
-0.300
-0.285
-0.280
-0.290
-0.295
-0.305
-0.325
-0.305
-0.300
-0.300
-0.315
-0.325
-0.335
-0.325
-0.315
-0.320
-0.335
-0.330
-0.340
-0.325
-0.325
-0.320
-0.315
-0.335
-0.335
-0.345
-0.335
-0.325
-0.330
-0.315
-0.335
-0.330
-0.330
-0.330
-0.330
-0.335
-0.340
-0.330
-0.320
-0.315
-0.325
-0.335
-0.355
-0.345
-0.340
-0.335
-0.320
-0.325
-0.350
-0.330
-0.315
-0.315
-0.330
-0.330
-0.335
-0.335
-0.330
-0.330
-0.330
-0.340
-0.340
-0.340
-0.325
-0.325
-0.325
-0.345
-0.350
-0.340
-0.330
-0.320
-0.310
-0.305
-0.305
-0.275
-0.270
-0.255
-0.260
-0.265
-0.260
-0.250
-0.235
-0.235
-0.220
-0.235
-0.235
-0.220
-0.230
-0.225
-0.235
-0.245
-0.255
-0.240
-0.230
-0.230
-0.250
-0.255
-0.250
-0.230
-0.205
-0.195
-0.210
-0.230
-0.270
-0.270
-0.285
-0.285
-0.310
-0.330
-0.340
-0.340
-0.345
-0.350
-0.350
-0.340
-0.355
-0.345
-0.340
-0.340
-0.345
-0.355
-0.370
-0.355
-0.370
-0.345
-0.340
-0.360
-0.380
-0.360
-0.345
-0.350
-0.350
-0.355
-0.380
-0.390
-0.395
-0.425
-0.455
-0.475
-0.510
-0.545
-0.540
-0.495
-0.405
-0.295
-0.160
0.040
0.315
0.595
0.800
0.885
0.795
0.520
0.130
-0.215
-0.425
-0.500
-0.490
-0.450
-0.400
-0.390
-0.395
-0.395
-0.400
-0.390
-0.380
-0.385
-0.385
-0.400
-0.410
-0.410
-0.390
-0.390
-0.405
-0.405
-0.415
-0.410
-0.395
-0.395
-0.400
-0.415
-0.415
-0.415
-0.400
-0.390
-0.390
-0.410
-0.415
-0.405
-0.395
-0.395
-0.395
-0.405
-0.410
-0.410
-0.400
-0.390
-0.395
-0.410
-0.425
-0.415
-0.405
-0.410
-0.405
-0.415
-0.425
-0.425
-0.410
-0.395
-0.390
-0.400
-0.410
-0.410
-0.400
-0.390
-0.410
-0.420
-0.420
-0.415
-0.415
-0.405
-0.420
-0.415
-0.425
-0.410
-0.400
-0.405
-0.400
-0.400
-0.410
-0.400
-0.395
-0.395
-0.405
-0.410
-0.425
-0.425
-0.410
-0.410
-0.420
-0.430
-0.445
-0.440
-0.435
-0.430
-0.430
-0.450
-0.445
-0.445
-0.435
-0.435
-0.445
-0.440
-0.450
-0.430
-0.430
-0.415
-0.400
-0.400
-0.385
-0.365
-0.335
-0.330
-0.325
-0.330
-0.330
-0.310
-0.295
-0.285
-0.290
-0.290
-0.310
-0.295
-0.285
-0.280
-0.300
-0.290
-0.295
-0.290
-0.280
-0.275
-0.275
-0.290
-0.290
-0.285
-0.270
-0.270
-0.270
-0.275
-0.290
-0.285
-0.275
-0.275
-0.290
-0.295
-0.305
-0.295
-0.295
-0.285
-0.290
-0.300
-0.305
-0.310
-0.295
-0.300
-0.305
-0.310
-0.325
-0.325
-0.315
-0.310
-0.315
-0.315
-0.325
-0.320
-0.310
-0.320
-0.315
-0.330
-0.330
-0.320
-0.310
-0.310
-0.310
-0.330
-0.335
-0.330
-0.320
-0.325
-0.325
-0.330
-0.335
-0.330
-0.325
-0.325
-0.320
-0.325
-0.330
-0.325
-0.315
-0.305
-0.325
-0.315
-0.335
-0.330
-0.310
-0.320
-0.330
-0.330
-0.335
-0.330
-0.330
-0.320
-0.320
-0.330
-0.330
-0.325
-0.315
-0.315
-0.315
-0.330
-0.330
-0.320
-0.315
-0.305
-0.305
-0.295
-0.315
-0.300
-0.275
-0.255
-0.255
-0.260
-0.265
-0.255
-0.235
-0.230
-0.225
-0.220
-0.220
-0.215
-0.200
-0.205
-0.205
-0.225
-0.235
-0.240
-0.230
-0.215
-0.240
-0.240
-0.250
-0.235
-0.210
-0.200
-0.220
-0.255
-0.275
-0.285
-0.300
-0.305
-0.320
-0.330
-0.325
-0.320
-0.330
-0.330
-0.335
-0.340
-0.345
-0.340
-0.335
-0.320
-0.325
-0.335
-0.345
-0.345
-0.345
-0.335
-0.340
-0.345
-0.355
-0.340
-0.340
-0.340
-0.340
-0.345
-0.355
-0.365
-0.370
-0.405
-0.445
-0.480
-0.495
-0.520
-0.535
-0.505
-0.415
-0.280
-0.135
0.065
0.300
0.580
0.810
0.945
0.920
0.775
0.445
0.020
-0.295
-0.445
-0.470
-0.425
-0.380
-0.360
-0.360
-0.370
-0.380
-0.380
-0.375
-0.370
-0.365
-0.370
-0.385
-0.385
-0.375
-0.370
-0.370
-0.385
-0.395
-0.385
-0.385
-0.390
-0.385
-0.395
-0.410
-0.400
-0.395
-0.380
-0.395
-0.395
-0.400
-0.400
-0.395
-0.390
-0.390
-0.395
-0.405
-0.390
-0.385
-0.375
-0.375
-0.380
-0.390
-0.385
-0.370
-0.370
-0.370
-0.375
-0.385
-0.370
-0.390
-0.375
-0.370
-0.380
-0.390
-0.390
-0.385
-0.375
-0.375
-0.385
-0.395
-0.390
-0.385
-0.375
-0.380
-0.385
-0.390
-0.380
-0.380
-0.370
-0.370
-0.365
-0.390
-0.365
-0.365
-0.360
-0.375
-0.380
-0.400
-0.390
-0.375
-0.375
-0.370
-0.385
-0.390
-0.390
-0.390
-0.390
-0.375
-0.385
-0.395
-0.380
-0.370
-0.375
-0.375
-0.390
-0.405
-0.375
-0.370
-0.360
-0.375
-0.385
-0.380
-0.370
-0.360
-0.345
-0.345
-0.330
-0.330
-0.315
-0.310
-0.295
-0.285
-0.285
-0.295
-0.280
-0.270
-0.280
-0.280
-0.280
-0.290
-0.290
-0.280
-0.275
-0.280
-0.285
-0.290
-0.290
-0.280
-0.280
-0.285
-0.290
-0.300
-0.295
-0.285
-0.280
-0.285
-0.285
-0.295
-0.285
-0.280
-0.275
-0.280
-0.290
-0.310
-0.305
-0.285
-0.270
-0.270
-0.275
-0.285
-0.285
-0.270
-0.265
-0.265
-0.265
-0.280
-0.265
-0.245
-0.235
-0.235
-0.250
-0.250
-0.245
-0.215
-0.220
-0.245
-0.255
-0.230
-0.205
-0.210
-0.220
-0.230
-0.240
-0.240
-0.245
-0.250
-0.270
-0.285
-0.315
-0.320
-0.320
-0.310
-0.330
-0.340
-0.345
-0.360
-0.365
-0.360
-0.350
-0.355
-0.375
-0.385
-0.375
-0.370
-0.365
-0.365
-0.370
-0.380
-0.360
-0.350
-0.355
-0.355
-0.350
-0.365
-0.350
-0.350
-0.340
-0.355
-0.350
-0.375
-0.365
-0.375
-0.400
-0.430
-0.475
-0.520
-0.520
-0.550
-0.570
-0.540
-0.445
-0.305
-0.140
0.025
0.260
0.510
0.735
0.845
0.875
0.735
0.400
-0.025
-0.335
-0.480
-0.470
-0.415
-0.375
-0.365
-0.385
-0.400
-0.380
-0.390
-0.375
-0.385
-0.395
-0.405
-0.390
-0.380
-0.385
-0.385
-0.395
-0.400
-0.405
-0.400
-0.390
-0.390
-0.395
-0.400
-0.390
-0.385
-0.390
-0.385
-0.410
-0.420
-0.405
-0.410
-0.390
-0.390
-0.390
-0.400
-0.400
-0.390
-0.375
-0.380
-0.395
-0.400
-0.390
-0.400
-0.390
-0.395
-0.410
-0.415
-0.405
-0.385
-0.385
-0.380
-0.400
-0.400
-0.395
-0.390
-0.380
-0.375
-0.395
-0.395
-0.385
-0.380
-0.375
-0.385
-0.390
-0.400
-0.400
-0.385
-0.380
-0.395
-0.390
-0.400
-0.395
-0.385
-0.380
-0.385
-0.395
-0.405
-0.400
-0.390
-0.380
-0.380
-0.385
-0.405
-0.395
-0.400
-0.390
-0.400
-0.405
-0.425
-0.420
-0.405
-0.400
-0.405
-0.405
-0.415
-0.400
-0.390
-0.380
-0.385
-0.395
-0.405
-0.390
-0.370
-0.370
-0.370
-0.385
-0.370
-0.355
-0.345
-0.340
-0.335
-0.340
-0.355
-0.335
-0.325
-0.310
-0.305
-0.305
-0.320
-0.315
-0.310
-0.305
-0.305
-0.330
-0.325
-0.345
-0.325
-0.315
-0.315
-0.305
-0.310
-0.310
-0.300
-0.305
-0.305
-0.315
-0.320
-0.325
-0.315
-0.305
-0.315
-0.325
-0.325
-0.330
-0.315
-0.315
-0.310
-0.330
-0.340
-0.335
-0.330
-0.345
-0.355
-0.365
-0.370
-0.345
-0.340
-0.340
-0.345
-0.360
-0.365
-0.360
-0.360
-0.345
-0.355
-0.365
-0.350
-0.360
-0.350
-0.340
-0.345
-0.355
-0.370
-0.350
-0.350
-0.350
-0.345
-0.350
-0.355
-0.360
-0.345
-0.355
-0.350
-0.360
-0.370
-0.355
-0.355
-0.350
-0.355
-0.360
-0.390
-0.385
-0.360
-0.360
-0.370
-0.370
-0.390
-0.375
-0.370
-0.350
-0.340
-0.345
-0.360
-0.360
-0.350
-0.350
-0.335
-0.360
-0.365
-0.365
-0.360
-0.360
-0.365
-0.375
-0.385
-0.385
-0.365
-0.370
-0.375
-0.370
-0.375
-0.365
-0.355
-0.355
-0.360
-0.365
-0.370
-0.360
-0.350
-0.340
-0.345
-0.340
-0.350
-0.345
-0.350
-0.360
-0.350
-0.360
-0.370
-0.360
-0.360
-0.355
-0.360
-0.375
-0.375
-0.370
-0.350
-0.355
-0.360
-0.365
-0.375
-0.370
-0.365
-0.360
-0.355
-0.360
-0.360
-0.350
-0.340
-0.345
-0.345
-0.355
-0.360
-0.360
-0.365
-0.345
-0.355
-0.350
-0.360
-0.355
-0.360
-0.345
-0.335
-0.330
-0.330
-0.310
-0.305
-0.300
-0.305
-0.295
-0.305
-0.285
-0.275
-0.265
-0.255
-0.255
-0.260
-0.265
-0.255
-0.255
-0.260
-0.280
-0.290
-0.280
-0.270
-0.255
-0.275
-0.290
-0.320
-0.300
-0.295
-0.270
-0.265
-0.270
-0.285
-0.300
-0.310
-0.315
-0.320
-0.350
-0.370
-0.365
-0.365
-0.365
-0.370
-0.370
-0.370
-0.380
-0.360
-0.375
-0.375
-0.400
-0.420
-0.405
-0.400
-0.385
-0.380
-0.400
-0.415
-0.405
-0.395
-0.395
-0.395
-0.410
-0.430
-0.440
-0.455
-0.490
-0.485
-0.520
-0.570
-0.575
-0.525
-0.420
-0.305
-0.190
-0.020
0.220
0.485
0.715
0.845
0.885
0.790
0.560
0.225
-0.070
-0.285
-0.425
-0.500
-0.550
-0.535
-0.500
-0.465
-0.450
-0.450
-0.435
-0.420
-0.410
-0.410
-0.415
-0.420
-0.425
-0.420
-0.430
-0.430
-0.440
-0.450
-0.450
-0.430
-0.430
-0.430
-0.445
-0.445
-0.440
-0.425
-0.430
-0.430
-0.425
-0.445
-0.445
-0.430
-0.435
-0.435
-0.445
-0.445
-0.435
-0.430
-0.425
-0.430
-0.430
-0.440
-0.420
-0.430
-0.425
-0.430
-0.440
-0.440
-0.430
-0.430
-0.415
-0.425
-0.430
-0.455
-0.445
-0.445
-0.430
-0.430
-0.440
-0.440
-0.435
-0.430
-0.415
-0.415
-0.425
-0.425
-0.420
-0.405
-0.405
-0.415
-0.415
-0.425
-0.430
-0.405
-0.405
-0.405
-0.405
-0.430
-0.415
-0.410
-0.415
-0.430
-0.445
-0.465
-0.460
-0.450
-0.455
-0.460
-0.465
-0.485
-0.495
-0.475
-0.490
-0.500
-0.495
-0.515
-0.500
-0.485
-0.490
-0.485
-0.500
-0.500
-0.490
-0.480
-0.460
-0.460
-0.470
-0.465
-0.440
-0.430
-0.425
-0.410
-0.410
-0.400
-0.390
-0.380
-0.355
-0.350
-0.355
-0.350
-0.340
-0.330
-0.325
-0.305
-0.320
-0.315
-0.305
-0.300
-0.305
-0.305
-0.310
-0.330
-0.310
-0.315
-0.315
-0.320
-0.325
-0.325
-0.325
-0.310
-0.310
-0.315
-0.325
-0.330
-0.325
-0.325
-0.315
-0.320
-0.330
-0.335
-0.330
-0.315
-0.320
-0.320
-0.335
-0.335
-0.325
-0.325
-0.320
-0.320
-0.325
-0.350
-0.345
-0.345
-0.335
-0.345
-0.355
-0.355
-0.355
-0.345
-0.335
-0.335
-0.345
-0.355
-0.340
-0.335
-0.330
-0.335
-0.345
-0.350
-0.350
-0.340
-0.335
-0.330
-0.360
-0.355
-0.345
-0.335
-0.345
-0.350
-0.360
-0.380
-0.370
-0.345
-0.345
-0.350
-0.355
-0.365
-0.360
-0.345
-0.345
-0.350
-0.360
-0.360
-0.350
-0.355
-0.340
-0.345
-0.355
-0.355
-0.355
-0.340
-0.340
-0.345
-0.365
-0.370
-0.350
-0.330
-0.320
-0.315
-0.295
-0.305
-0.295
-0.300
-0.285
-0.275
-0.260
-0.275
-0.265
-0.260
-0.250
-0.245
-0.255
-0.265
-0.260
-0.260
-0.250
-0.260
-0.280
-0.280
-0.275
-0.285
-0.280
-0.255
-0.245
-0.245
-0.260
-0.285
-0.290
-0.300
-0.320
-0.335
-0.355
-0.350
-0.355
-0.355
-0.375
-0.385
-0.380
-0.360
-0.350
-0.360
-0.365
-0.370
-0.370
-0.365
-0.360
-0.365
-0.370
-0.385
-0.385
-0.365
-0.360
-0.380
-0.385
-0.395
-0.395
-0.385
-0.380
-0.395
-0.425
-0.465
-0.500
-0.515
-0.530
-0.560
-0.585
-0.530
-0.410
-0.255
-0.105
0.105
0.355
0.600
0.810
0.890
0.830
0.580
0.185
-0.205
-0.450
-0.525
-0.495
-0.465
-0.435
-0.415
-0.415
-0.415
-0.400
-0.395
-0.405
-0.425
-0.435
-0.415
-0.415
-0.415
-0.415
-0.430
-0.420
-0.410
-0.405
-0.420
-0.410
-0.420
-0.400
-0.395
-0.385
-0.400
-0.400
-0.400
-0.400
-0.395
-0.400
-0.400
-0.400
-0.410
-0.395
-0.410
-0.400
-0.395
-0.405
-0.410
-0.415
-0.405
-0.400
-0.395
-0.405
-0.415
-0.405
-0.415
-0.410
-0.405
-0.405
-0.410
-0.405
-0.400
-0.395
-0.405
-0.405
-0.400
-0.395
-0.390
-0.395
-0.390
-0.395
-0.420
-0.415
-0.405
-0.400
-0.400
-0.415
-0.420
-0.410
-0.395
-0.400
-0.405
-0.415
-0.435
-0.415
-0.415
-0.400
-0.405
-0.420
-0.430
-0.425
-0.410
-0.410
-0.405
-0.415
-0.425
-0.425
-0.420
-0.410
-0.410
-0.420
-0.430
-0.425
-0.420
-0.405
-0.415
-0.410
-0.410
-0.385
-0.370
-0.360
-0.350
-0.350
-0.350
-0.335
-0.320
-0.305
-0.315
-0.315
-0.320
-0.305
-0.305
-0.295
-0.290
-0.295
-0.295
-0.285
-0.285
-0.270
-0.280
-0.280
-0.295
-0.280
-0.285
-0.275
-0.285
-0.295
-0.305
-0.295
-0.285
-0.285
-0.290
-0.300
-0.310
-0.295
-0.300
-0.290
-0.285
-0.305
-0.310
-0.300
-0.295
-0.305
-0.300
-0.305
-0.320
-0.320
-0.310
-0.300
-0.310
-0.320
-0.340
-0.330
-0.310
-0.315
-0.325
-0.325
-0.345
-0.330
-0.320
-0.320
-0.335
-0.335
-0.355
-0.340
-0.320
-0.315
-0.330
-0.340
-0.340
-0.350
-0.330
-0.330
-0.340
-0.350
-0.355
-0.345
-0.335
-0.335
-0.340
-0.340
-0.345
-0.335
-0.335
-0.325
-0.325
-0.335
-0.340
-0.340
-0.320
-0.315
-0.320
-0.335
-0.335
-0.320
-0.325
-0.315
-0.320
-0.320
-0.345
-0.335
-0.320
-0.310
-0.320
-0.320
-0.340
-0.330
-0.320
-0.310
-0.310
-0.310
-0.295
-0.280
-0.255
-0.250
-0.250
-0.255
-0.260
-0.240
-0.220
-0.230
-0.230
-0.215
-0.220
-0.225
-0.230
-0.230
-0.235
-0.245
-0.255
-0.240
-0.235
-0.245
-0.235
-0.230
-0.220
-0.195
-0.220
-0.245
-0.260
-0.270
-0.290
-0.300
-0.305
-0.305
-0.320
-0.330
-0.350
-0.350
-0.335
-0.335
-0.335
-0.340
-0.350
-0.350
-0.345
-0.335
-0.345
-0.355
-0.370
-0.350
-0.345
-0.335
-0.335
-0.335
-0.355
-0.355
-0.345
-0.355
-0.395
-0.450
-0.480
-0.505
-0.525
-0.545
-0.500
-0.395
-0.255
-0.070
0.145
0.425
0.685
0.875
0.925
0.795
0.470
0.020
-0.325
-0.470
-0.485
-0.410
-0.365
-0.355
-0.365
-0.380
-0.385
-0.380
-0.370
-0.370
-0.375
-0.385
-0.395
-0.385
-0.380
-0.385
-0.375
-0.390
-0.405
-0.405
-0.390
-0.385
-0.385
-0.390
-0.410
-0.400
-0.390
-0.385
-0.385
-0.395
-0.390
-0.395
-0.380
-0.375
-0.380
-0.385
-0.400
-0.385
-0.380
-0.375
-0.380
-0.395
-0.395
-0.385
-0.375
-0.370
-0.365
-0.385
-0.395
-0.385
-0.385
-0.370
-0.375
-0.370
-0.375
-0.375
-0.370
-0.355
-0.365
-0.380
-0.375
-0.370
-0.380
-0.365
-0.370
-0.375
-0.390
-0.380
-0.375
-0.380
-0.370
-0.375
-0.380
-0.385
-0.385
-0.370
-0.375
-0.375
-0.380
-0.380
-0.380
-0.380
-0.375
-0.390
-0.395
-0.385
-0.385
-0.375
-0.375
-0.385
-0.385
-0.390
-0.370
-0.365
-0.365
-0.375
-0.385
-0.350
-0.345
-0.325
-0.325
-0.330
-0.325
-0.325
-0.315
-0.315
-0.315
-0.300
-0.300
-0.285
-0.270
-0.265
-0.260
-0.275
-0.285
-0.265
-0.255
-0.250
-0.270
-0.280
-0.285
-0.285
-0.280
-0.270
-0.270
-0.270
-0.285
-0.280
-0.275
-0.270
-0.265
-0.275
-0.290
-0.285
-0.285
-0.275
-0.270
-0.280
-0.295
-0.280
-0.270
-0.270
-0.275
-0.285
-0.300
-0.295
-0.290
-0.295
-0.300
-0.290
-0.305
-0.295
-0.290
-0.295
-0.290
-0.310
-0.320
-0.315
-0.315
-0.300
-0.305
-0.315
-0.330
-0.320
-0.305
-0.315
-0.305
-0.315
-0.325
-0.310
-0.295
-0.300
-0.305
-0.310
-0.325
-0.315
-0.315
-0.305
-0.305
-0.325
-0.320
-0.320
-0.310
-0.305
-0.320
-0.320
-0.320
-0.310
-0.305
-0.290
-0.285
-0.290
-0.305
-0.310
-0.300
-0.300
-0.310
-0.315
-0.315
-0.310
-0.295
-0.300
-0.295
-0.315
-0.310
-0.290
-0.265
-0.240
-0.255
-0.240
-0.250
-0.225
-0.225
-0.215
-0.210
-0.200
-0.195
-0.195
-0.180
-0.175
-0.180
-0.205
-0.215
-0.210
-0.210
-0.210
-0.210
-0.215
-0.225
-0.210
-0.180
-0.170
-0.185
-0.240
-0.255
-0.255
-0.270
-0.275
-0.285
-0.300
-0.300
-0.315
-0.305
-0.300
-0.295
-0.300
-0.315
-0.310
-0.310
-0.300
-0.300
-0.305
-0.315
-0.325
-0.320
-0.320
-0.320
-0.325
-0.340
-0.335
-0.325
-0.315
-0.320
-0.345
-0.370
-0.395
-0.425
-0.445
-0.465
-0.510
-0.530
-0.485
-0.370
-0.235
-0.090
0.105
0.375
0.655
0.820
0.865
0.735
0.450
0.060
-0.270
-0.430
-0.460
-0.415
-0.385
-0.365
-0.355
-0.355
-0.345
-0.350
-0.350
-0.360
-0.345
-0.340
-0.340
-0.335
-0.335
-0.355
-0.345
-0.340
-0.335
-0.340
-0.350
-0.365
-0.360
-0.365
-0.350
-0.345
-0.365
-0.360
-0.350
-0.355
-0.350
-0.355
-0.350
-0.360
-0.335
-0.335
-0.330
-0.340
-0.350
-0.350
-0.345
-0.335
-0.345
-0.355
-0.355
-0.370
-0.355
-0.350
-0.345
-0.365
-0.365
-0.370
-0.365
-0.355
-0.345
-0.345
-0.345
-0.340
-0.335
-0.325
-0.335
-0.345
-0.350
-0.350
-0.355
-0.355
-0.360
-0.350
-0.360
-0.365
-0.345
-0.345
-0.330
-0.350
-0.345
-0.355
-0.350
-0.340
-0.335
-0.350
-0.365
-0.380
-0.385
-0.355
-0.360
-0.355
-0.370
-0.385
-0.370
-0.370
-0.350
-0.345
-0.365
-0.365
-0.360
-0.345
-0.330
-0.330
-0.330
-0.335
-0.315
-0.310
-0.285
-0.290
-0.290
-0.300
-0.280
-0.275
-0.260
-0.260
-0.270
-0.265
-0.255
-0.250
-0.245
-0.245
-0.255
-0.265
-0.260
-0.255
-0.240
-0.250
-0.255
-0.275
-0.275
-0.265
-0.270
-0.275
-0.280
-0.290
-0.280
-0.275
-0.270
-0.270
-0.280
-0.290
-0.280
-0.285
-0.275
-0.290
-0.280
-0.290
-0.280
-0.285
-0.275
-0.280
-0.295
-0.305
-0.300
-0.300
-0.305
-0.315
-0.320
-0.310
-0.310
-0.300
-0.310
-0.310
-0.320
-0.325
-0.310
-0.320
-0.310
-0.310
-0.315
-0.325
-0.315
-0.305
-0.315
-0.310
-0.320
-0.325
-0.325
-0.320
-0.305
-0.305
-0.300
-0.315
-0.300
-0.310
-0.315
-0.305
-0.310
-0.320
-0.310
-0.300
-0.295
-0.300
-0.315
-0.325
-0.325
-0.305
-0.310
-0.290
-0.315
-0.325
-0.320
-0.290
-0.280
-0.260
-0.260
-0.265
-0.260
-0.250
-0.230
-0.220
-0.220
-0.235
-0.220
-0.205
-0.205
-0.210
-0.210
-0.230
-0.240
-0.230
-0.225
-0.235
-0.250
-0.265
-0.260
-0.245
-0.215
-0.215
-0.245
-0.280
-0.275
-0.275
-0.295
-0.310
-0.325
-0.340
-0.340
-0.325
-0.315
-0.310
-0.315
-0.330
-0.330
-0.325
-0.325
-0.335
-0.345
-0.350
-0.350
-0.350
-0.345
-0.350
-0.365
-0.360
-0.350
-0.355
-0.345
-0.345
-0.350
-0.365
-0.380
-0.405
-0.425
-0.440
-0.470
-0.520
-0.540
-0.490
-0.390
-0.260
-0.115
0.085
0.360
0.615
0.780
0.835
0.720
0.410
0.030
-0.255
-0.415
-0.470
-0.465
-0.435
-0.395
-0.375
-0.370
-0.375
-0.375
-0.390
-0.400
-0.380
-0.385
-0.385
-0.385
-0.385
-0.370
-0.370
-0.360
-0.380
-0.380
-0.385
-0.370
-0.370
-0.365
-0.375
-0.385
-0.390
-0.390
-0.385
-0.385
-0.395
-0.390
-0.400
-0.405
-0.390
-0.395
-0.390
-0.405
-0.405
-0.400
-0.375
-0.380
-0.390
-0.395
-0.395
-0.390
-0.390
-0.385
-0.405
-0.400
-0.405
-0.395
-0.390
-0.395
-0.390
-0.400
-0.405
-0.405
-0.390
-0.390
-0.395
-0.400
-0.400
-0.395
-0.380
-0.370
-0.380
-0.385
-0.395
-0.390
-0.380
-0.380
-0.385
-0.390
-0.390
-0.400
-0.400
-0.405
-0.415
-0.420
-0.430
-0.430
-0.425
-0.420
-0.430
-0.445
-0.465
-0.455
-0.440
-0.425
-0.435
-0.450
-0.440
-0.445
-0.425
-0.425
-0.425
-0.430
-0.430
-0.415
-0.415
-0.385
-0.375
-0.385
-0.370
-0.360
-0.350
-0.335
-0.335
-0.325
-0.320
-0.325
-0.305
-0.295
-0.300
-0.290
-0.295
-0.290
-0.290
-0.285
-0.285
-0.285
-0.290
-0.290
-0.285
-0.270
-0.270
-0.280
-0.290
-0.285
-0.275
-0.275
-0.275
-0.290
-0.305
-0.305
-0.300
-0.280
-0.290
-0.305
-0.315
-0.310
-0.295
-0.290
-0.300
-0.305
-0.305
-0.310
-0.300
-0.295
-0.305
-0.305
-0.315
-0.310
-0.310
-0.295
-0.300
-0.305
-0.310
-0.305
-0.305
-0.295
-0.300
-0.315
-0.325
-0.320
-0.320
-0.315
-0.310
-0.325
-0.335
-0.330
-0.320
-0.320
-0.310
-0.330
-0.330
-0.325
-0.310
-0.305
-0.305
-0.320
-0.330
-0.325
-0.300
-0.310
-0.305
-0.315
-0.330
-0.330
-0.330
-0.320
-0.325
-0.325
-0.335
-0.325
-0.315
-0.310
-0.315
-0.320
-0.325
-0.315
-0.310
-0.305
-0.310
-0.315
-0.320
-0.315
-0.310
-0.295
-0.295
-0.305
-0.310
-0.300
-0.280
-0.275
-0.265
-0.275
-0.275
-0.260
-0.240
-0.240
-0.235
-0.240
-0.235
-0.225
-0.215
-0.205
-0.205
-0.210
-0.215
-0.220
-0.220
-0.215
-0.220
-0.220
-0.230
-0.230
-0.240
-0.210
-0.220
-0.230
-0.255
-0.235
-0.210
-0.190
-0.205
-0.225
-0.260
-0.275
-0.280
-0.285
-0.305
-0.320
-0.315
-0.335
-0.325
-0.335
-0.320
-0.325
-0.320
-0.325
-0.325
-0.310
-0.305
-0.320
-0.320
-0.330
-0.320
-0.320
-0.330
-0.330
-0.360
-0.355
-0.330
-0.325
-0.325
-0.335
-0.350
-0.340
-0.345
-0.355
-0.385
-0.425
-0.450
-0.470
-0.485
-0.510
-0.515
-0.455
-0.325
-0.165
0.010
0.250
0.515
0.740
0.885
0.935
0.835
0.525
0.120
-0.230
-0.425
-0.455
-0.420
-0.380
-0.360
-0.365
-0.375
-0.380
-0.355
-0.355
-0.370
-0.375
-0.385
-0.380
-0.365
-0.370
-0.370
-0.365
-0.380
-0.370
-0.375
-0.365
-0.370
-0.380
-0.375
-0.365
-0.360
-0.360
-0.355
-0.355
-0.370
-0.365
-0.355
-0.350
-0.350
-0.350
-0.360
-0.360
-0.360
-0.350
-0.355
-0.365
-0.370
-0.360
-0.350
-0.355
-0.350
-0.355
-0.370
-0.375
-0.360
-0.350
-0.345
-0.350
-0.370
-0.370
-0.355
-0.350
-0.345
-0.360
-0.370
-0.365
-0.360
-0.350
-0.355
-0.365
-0.365
-0.370
-0.365
-0.350
-0.350
-0.360
-0.360
-0.355
-0.345
-0.350
-0.345
-0.355
-0.370
-0.365
-0.355
-0.360
-0.365
-0.365
-0.380
-0.385
-0.375
-0.370
-0.375
-0.385
-0.395
-0.375
-0.385
-0.380
-0.370
-0.385
-0.385
-0.380
-0.370
-0.360
-0.350
-0.335
-0.330
-0.315
-0.295
-0.290
-0.290
-0.285
-0.290
-0.280
-0.280
-0.260
-0.255
-0.270
-0.275
-0.260
-0.250
-0.245
-0.250
-0.260
-0.265
-0.245
-0.235
-0.245
-0.240
-0.250
-0.265
-0.250
-0.250
-0.250
-0.250
-0.255
-0.265
-0.260
-0.240
-0.250
-0.245
-0.250
-0.270
-0.265
-0.270
-0.265
-0.265
-0.275
-0.285
-0.275
-0.265
-0.270
-0.270
-0.280
-0.285
-0.285
-0.280
-0.285
-0.280
-0.285
-0.300
-0.290
-0.285
-0.270
-0.280
-0.295
-0.290
-0.290
-0.295
-0.290
-0.285
-0.305
-0.315
-0.310
-0.310
-0.290
-0.295
-0.310
-0.320
-0.315
-0.310
-0.300
-0.300
-0.315
-0.320
-0.315
-0.320
-0.290
-0.300
-0.300
-0.315
-0.310
-0.300
-0.300
-0.290
-0.310
-0.325
-0.315
-0.305
-0.305
-0.305
-0.315
-0.325
-0.320
-0.310
-0.300
-0.295
-0.315
-0.320
-0.305
-0.300
-0.290
-0.295
-0.295
-0.310
-0.295
-0.295
-0.285
-0.295
-0.295
-0.310
-0.300
-0.285
-0.280
-0.275
-0.280
-0.265
-0.245
-0.230
-0.240
-0.240
-0.240
-0.245
-0.220
-0.220
-0.215
-0.200
-0.200
-0.210
-0.205
-0.195
-0.205
-0.210
-0.215
-0.225
-0.225
-0.200
-0.200
-0.210
-0.225
-0.220
-0.195
-0.180
-0.175
-0.205
-0.245
-0.265
-0.275
-0.280
-0.285
-0.300
-0.310
-0.325
-0.320
-0.325
-0.310
-0.325
-0.330
-0.340
-0.335
-0.330
-0.325
-0.320
-0.340
-0.345
-0.340
-0.330
-0.335
-0.330
-0.340
-0.340
-0.335
-0.335
-0.330
-0.335
-0.345
-0.375
-0.395
-0.430
-0.440
-0.450
-0.450
-0.475
-0.480
-0.510
-0.550
-0.575
-0.545
-0.490
-0.375
-0.250
-0.120
0.060
0.285
0.525
0.740
0.860
0.890
0.730
0.425
0.015
-0.285
-0.435
-0.450
-0.435
-0.385
-0.380
-0.370
-0.370
-0.370
-0.360
-0.360
-0.370
-0.385
-0.365
-0.360
-0.365
-0.365
-0.375
-0.385
-0.360
-0.365
-0.355
-0.375
-0.380
-0.375
-0.355
-0.355
-0.360
-0.365
-0.380
-0.370
-0.355
-0.350
-0.355
-0.365
-0.380
-0.365
-0.355
-0.355
-0.365
-0.385
-0.390
-0.375
-0.355
-0.365
-0.360
-0.355
-0.365
-0.365
-0.355
-0.345
-0.345
-0.365
-0.360
-0.375
-0.355
-0.360
-0.365
-0.365
-0.370
-0.360
-0.355
-0.360
-0.365
-0.385
-0.380
-0.365
-0.355
-0.335
-0.360
-0.360
-0.385
-0.380
-0.375
-0.360
-0.360
-0.365
-0.375
-0.365
-0.355
-0.360
-0.350
-0.360
-0.370
-0.370
-0.365
-0.370
-0.380
-0.390
-0.385
-0.380
-0.370
-0.370
-0.365
-0.365
-0.390
-0.375
-0.370
-0.355
-0.365
-0.360
-0.370
-0.350
-0.340
-0.325
-0.320
-0.315
-0.325
-0.310
-0.295
-0.285
-0.290
-0.290
-0.275
-0.270
-0.265
-0.260
-0.260
-0.275
-0.275
-0.285
-0.260
-0.260
-0.265
-0.270
-0.280
-0.275
-0.255
-0.255
-0.245
-0.255
-0.260
-0.255
-0.255
-0.260
-0.265
-0.280
-0.295
-0.290
-0.275
-0.280
-0.280
-0.280
-0.285
-0.285
-0.280
-0.270
-0.285
-0.300
-0.310
-0.300
-0.290
-0.280
-0.300
-0.290
-0.310
-0.300
-0.295
-0.290
-0.285
-0.295
-0.325
-0.315
-0.310
-0.305
-0.300
-0.315
-0.330
-0.320
-0.320
-0.315
-0.320
-0.325
-0.335
-0.330
-0.325
-0.310
-0.315
-0.315
-0.335
-0.320
-0.310
-0.315
-0.310
-0.320
-0.335
-0.325
-0.325
-0.315
-0.310
-0.320
-0.330
-0.320
-0.320
-0.310
-0.330
-0.330
-0.345
-0.340
-0.330
-0.320
-0.315
-0.335
-0.335
-0.330
-0.310
-0.310
-0.315
-0.330
-0.320
-0.315
-0.300
-0.285
-0.280
-0.265
-0.260
-0.265
-0.260
-0.255
-0.260
-0.250
-0.255
-0.240
-0.230
-0.205
-0.210
-0.225
-0.235
-0.225
-0.225
-0.230
-0.225
-0.240
-0.240
-0.230
-0.235
-0.250
-0.250
-0.255
-0.235
-0.220
-0.205
-0.215
-0.240
-0.265
-0.280
-0.280
-0.270
-0.270
-0.290
-0.320
-0.335
-0.340
-0.330
-0.330
-0.335
-0.350
-0.360
-0.350
-0.350
-0.345
-0.350
-0.355
-0.365
-0.360
-0.355
-0.350
-0.340
-0.360
-0.370
-0.370
-0.355
-0.345
-0.350
-0.370
-0.385
-0.410
-0.440
-0.460
-0.490
-0.540
-0.565
-0.550
-0.485
-0.365
-0.255
-0.125
0.090
0.360
0.600
0.750
0.795
0.700
0.440
0.095
-0.185
-0.370
-0.470
-0.490
-0.470
-0.440
-0.425
-0.410
-0.410
-0.410
-0.420
-0.400
-0.395
-0.405
-0.410
-0.405
-0.420
-0.395
-0.395
-0.390
-0.395
-0.395
-0.410
-0.400
-0.400
-0.410
-0.400
-0.405
-0.410
-0.410
-0.400
-0.390
-0.390
-0.400
-0.400
-0.395
-0.390
-0.385
-0.390
-0.410
-0.410
-0.410
-0.415
-0.410
-0.405
-0.420
-0.420
-0.420
-0.415
-0.410
-0.415
-0.425
-0.425
-0.420
-0.425
-0.420
-0.410
-0.410
-0.415
-0.410
-0.410
-0.400
-0.405
-0.405
-0.425
-0.420
-0.410
-0.400
-0.405
-0.415
-0.420
-0.410
-0.410
-0.400
-0.410
-0.415
-0.420
-0.410
-0.400
-0.390
-0.400
-0.415
-0.420
-0.415
-0.415
-0.400
-0.415
-0.430
-0.450
-0.440
-0.440
-0.435
-0.435
-0.440
-0.450
-0.435
-0.440
-0.430
-0.440
-0.445
-0.445
-0.440
-0.435
-0.420
-0.415
-0.410
-0.405
-0.380
-0.375
-0.370
-0.370
-0.370
-0.360
-0.355
-0.325
-0.305
-0.310
-0.320
-0.325
-0.325
-0.315
-0.300
-0.305
-0.320
-0.330
-0.330
-0.310
-0.310
-0.310
-0.305
-0.310
-0.320
-0.305
-0.300
-0.300
-0.305
-0.320
-0.320
-0.315
-0.315
-0.310
-0.330
-0.335
-0.335
-0.320
-0.315
-0.315
-0.325
-0.330
-0.335
-0.320
-0.300
-0.300
-0.320
-0.320
-0.330
-0.320
-0.320
-0.325
-0.340
-0.355
-0.345
-0.350
-0.345
-0.345
-0.360
-0.360
-0.345
-0.340
-0.340
-0.355
-0.350
-0.350
-0.355
-0.340
-0.335
-0.340
-0.350
-0.355
-0.355
-0.355
-0.345
-0.345
-0.350
-0.360
-0.365
-0.365
-0.350
-0.350
-0.360
-0.370
-0.360
-0.350
-0.335
-0.350
-0.350
-0.345
-0.340
-0.340
-0.340
-0.340
-0.345
-0.350
-0.360
-0.350
-0.335
-0.345
-0.350
-0.350
-0.355
-0.340
-0.335
-0.330
-0.340
-0.355
-0.355
-0.330
-0.315
-0.315
-0.315
-0.320
-0.300
-0.300
-0.280
-0.265
-0.280
-0.285
-0.265
-0.235
-0.230
-0.230
-0.245
-0.255
-0.250
-0.245
-0.250
-0.255
-0.265
-0.270
-0.290
-0.280
-0.275
-0.260
-0.255
-0.260
-0.275
-0.295
-0.300
-0.305
-0.335
-0.355
-0.350
-0.350
-0.350
-0.355
-0.370
-0.370
-0.360
-0.365
-0.355
-0.365
-0.375
-0.385
-0.380
-0.375
-0.355
-0.370
-0.385
-0.390
-0.390
-0.370
-0.360
-0.370
-0.380
-0.385
-0.380
-0.375
-0.370
-0.380
-0.405
-0.445
-0.465
-0.480
-0.485
-0.525
-0.555
-0.535
-0.450
-0.325
-0.185
-0.025
0.185
0.430
0.660
0.815
0.850
0.750
0.485
0.110
-0.210
-0.390
-0.460
-0.485
-0.470
-0.450
-0.425
-0.415
-0.405
-0.415
-0.415
-0.420
-0.400
-0.395
-0.385
-0.395
-0.400
-0.420
-0.410
-0.400
-0.400
-0.405
-0.405
-0.435
-0.420
-0.410
-0.405
-0.415
-0.430
-0.440
-0.435
-0.415
-0.420
-0.430
-0.415
-0.430
-0.425
-0.420
-0.420
-0.415
-0.425
-0.425
-0.420
-0.410
-0.410
-0.410
-0.420
-0.430
-0.420
-0.415
-0.395
-0.405
-0.415
-0.430
-0.420
-0.420
-0.415
-0.420
-0.425
-0.440
-0.430
-0.425
-0.415
-0.420
-0.425
-0.440
-0.430
-0.430
-0.425
-0.420
-0.415
-0.425
-0.430
-0.425
-0.415
-0.405
-0.405
-0.425
-0.415
-0.420
-0.420
-0.420
-0.435
-0.435
-0.440
-0.420
-0.430
-0.450
-0.455
-0.465
-0.465
-0.465
-0.465
-0.465
-0.470
-0.490
-0.485
-0.460
-0.455
-0.460
-0.455
-0.455
-0.440
-0.425
-0.415
-0.400
-0.405
-0.400
-0.385
-0.365
-0.365
-0.360
-0.370
-0.375
-0.355
-0.340
-0.330
-0.330
-0.330
-0.340
-0.335
-0.320
-0.305
-0.315
-0.320
-0.320
-0.320
-0.315
-0.310
-0.310
-0.315
-0.330
-0.320
-0.320
-0.310
-0.320
-0.330
-0.340
-0.330
-0.325
-0.325
-0.320
-0.340
-0.350
-0.340
-0.320
-0.315
-0.325
-0.340
-0.345
-0.345
-0.340
-0.330
-0.335
-0.345
-0.360
-0.355
-0.340
-0.330
-0.335
-0.345
-0.365
-0.370
-0.350
-0.340
-0.335
-0.360
-0.355
-0.340
-0.335
-0.335
-0.320
-0.335
-0.355
-0.350
-0.345
-0.340
-0.335
-0.350
-0.370
-0.360
-0.355
-0.350
-0.345
-0.365
-0.360
-0.360
-0.350
-0.345
-0.355
-0.355
-0.365
-0.360
-0.345
-0.345
-0.350
-0.355
-0.360
-0.355
-0.350
-0.335
-0.335
-0.355
-0.345
-0.340
-0.330
-0.340
-0.345
-0.350
-0.355
-0.350
-0.335
-0.330
-0.330
-0.330
-0.330
-0.305
-0.285
-0.275
-0.280
-0.285
-0.290
-0.275
-0.260
-0.245
-0.240
-0.240
-0.240
-0.235
-0.225
-0.220
-0.230
-0.240
-0.255
-0.255
-0.240
-0.240
-0.250
-0.270
-0.270
-0.240
-0.230
-0.225
-0.265
-0.295
-0.305
-0.325
-0.315
-0.325
-0.330
-0.345
-0.360
-0.365
-0.355
-0.345
-0.340
-0.335
-0.360
-0.355
-0.345
-0.335
-0.355
-0.350
-0.375
-0.375
-0.365
-0.365
-0.350
-0.370
-0.380
-0.365
-0.370
-0.355
-0.370
-0.380
-0.385
-0.385
-0.400
-0.430
-0.465
-0.485
-0.520
-0.555
-0.525
-0.435
-0.305
-0.155
0.010
0.260
0.535
0.760
0.890
0.905
0.705
0.360
-0.030
-0.320
-0.455
-0.475
-0.440
-0.395
-0.380
-0.380
-0.385
-0.395
-0.400
-0.405
-0.395
-0.410
-0.390
-0.395
-0.405
-0.405
-0.395
-0.385
-0.385
-0.405
-0.405
-0.400
-0.385
-0.380
-0.385
-0.405
-0.410
-0.400
-0.395
-0.385
-0.395
-0.410
-0.405
-0.405
-0.395
-0.390
-0.395
-0.395
-0.405
-0.410
-0.400
-0.385
-0.395
-0.400
-0.395
-0.385
-0.385
-0.375
-0.375
-0.380
-0.395
-0.385
-0.390
-0.385
-0.380
-0.390
-0.400
-0.400
-0.390
-0.365
-0.375
-0.385
-0.400
-0.400
-0.390
-0.380
-0.375
-0.385
-0.395
-0.380
-0.370
-0.365
-0.365
-0.375
-0.385
-0.375
-0.375
-0.365
-0.370
-0.375
-0.400
-0.395
-0.405
-0.370
-0.385
-0.400
-0.410
-0.400
-0.395
-0.375
-0.380
-0.385
-0.405
-0.385
-0.375
-0.370
-0.365
-0.365
-0.350
-0.355
-0.320
-0.310
-0.310
-0.305
-0.310
-0.290
-0.280
-0.280
-0.270
-0.280
-0.285
-0.280
-0.285
-0.265
-0.270
-0.275
-0.290
-0.290
-0.275
-0.275
-0.270
-0.275
-0.290
-0.285
-0.285
-0.260
-0.260
-0.275
-0.285
-0.275
-0.265
-0.270
-0.280
-0.290
-0.295
-0.300
-0.280
-0.280
-0.275
-0.290
-0.300
-0.305
-0.285
-0.285
-0.285
-0.295
-0.300
-0.300
-0.295
-0.280
-0.295
-0.290
-0.305
-0.305
-0.300
-0.285
-0.285
-0.310
-0.315
-0.305
-0.305
-0.295
-0.300
-0.320
-0.335
-0.320
-0.320
-0.310
-0.315
-0.310
-0.330
-0.320
-0.310
-0.305
-0.305
-0.315
-0.315
-0.315
-0.305
-0.305
-0.300
-0.310
-0.310
-0.310
-0.310
-0.295
-0.300
-0.325
-0.325
-0.330
-0.320
-0.310
-0.305
-0.315
-0.330
-0.320
-0.310
-0.305
-0.300
-0.295
-0.320
-0.310
-0.300
-0.275
-0.270
-0.260
-0.250
-0.235
-0.230
-0.225
-0.230
-0.230
-0.240
-0.230
-0.225
-0.205
-0.205
-0.200
-0.210
-0.195
-0.200
-0.190
-0.200
-0.210
-0.225
-0.225
-0.220
-0.220
-0.220
-0.230
-0.250
-0.245
-0.230
-0.205
-0.185
-0.195
-0.225
-0.250
-0.255
-0.265
-0.275
-0.305
-0.320
-0.325
-0.325
-0.330
-0.330
-0.325
-0.335
-0.340
-0.335
-0.320
-0.335
-0.345
-0.355
-0.350
-0.355
-0.350
-0.345
-0.340
-0.355
-0.350
-0.340
-0.340
-0.340
-0.355
-0.400
-0.435
-0.455
-0.470
-0.500
-0.540
-0.545
-0.465
-0.355
-0.210
-0.035
0.185
0.435
0.675
0.820
0.825
0.640
0.320
-0.070
-0.340
-0.445
-0.445
-0.410
-0.380
-0.375
-0.375
-0.370
-0.365
-0.360
-0.370
-0.375
-0.370
-0.360
-0.350
-0.355
-0.365
-0.380
-0.380
-0.370
-0.365
-0.365
-0.380
-0.385
-0.390
-0.380
-0.375
-0.375
-0.380
-0.390
-0.380
-0.375
-0.370
-0.365
-0.375
-0.385
-0.365
-0.360
-0.350
-0.355
-0.355
-0.370
-0.365
-0.350
-0.360
-0.365
-0.365
-0.375
-0.375
-0.355
-0.355
-0.370
-0.375
-0.380
-0.385
-0.370
-0.370
-0.360
-0.370
-0.375
-0.365
-0.355
-0.345
-0.360
-0.355
-0.365
-0.360
-0.345
-0.335
-0.335
-0.355
-0.355
-0.350
-0.340
-0.350
-0.350
-0.355
-0.365
-0.360
-0.365
-0.365
-0.365
-0.370
-0.375
-0.380
-0.365
-0.350
-0.360
-0.365
-0.380
-0.375
-0.370
-0.360
-0.365
-0.375
-0.380
-0.375
-0.360
-0.355
-0.355
-0.355
-0.350
-0.350
-0.340
-0.330
-0.325
-0.335
-0.335
-0.330
-0.310
-0.300
-0.295
-0.305
-0.310
-0.285
-0.285
-0.265
-0.270
-0.285
-0.290
-0.275
-0.270
-0.255
-0.265
-0.265
-0.275
-0.270
-0.260
-0.250
-0.260
-0.270
-0.280
-0.290
-0.290
-0.280
-0.280
-0.290
-0.305
-0.300
-0.300
-0.295
-0.300
-0.290
-0.300
-0.310
-0.310
-0.295
-0.295
-0.300
-0.320
-0.315
-0.315
-0.300
-0.310
-0.305
-0.315
-0.305
-0.305
-0.305
-0.300
-0.305
-0.310
-0.315
-0.315
-0.315
-0.320
-0.335
-0.345
-0.335
-0.310
-0.325
-0.320
-0.330
-0.325
-0.325
-0.320
-0.320
-0.315
-0.325
-0.345
-0.335
-0.325
-0.325
-0.330
-0.335
-0.340
-0.335
-0.325
-0.320
-0.315
-0.335
-0.345
-0.335
-0.325
-0.325
-0.320
-0.325
-0.335
-0.320
-0.320
-0.310
-0.310
-0.320
-0.330
-0.340
-0.325
-0.305
-0.305
-0.290
-0.290
-0.270
-0.265
-0.265
-0.260
-0.260
-0.270
-0.275
-0.260
-0.245
-0.235
-0.230
-0.245
-0.240
-0.230
-0.240
-0.225
-0.240
-0.245
-0.240
-0.220
-0.220
-0.230
-0.245
-0.255
-0.240
-0.215
-0.225
-0.255
-0.285
-0.310
-0.310
-0.330
-0.335
-0.350
-0.350
-0.360
-0.355
-0.340
-0.340
-0.335
-0.350
-0.360
-0.360
-0.345
-0.345
-0.350
-0.350
-0.360
-0.350
-0.350
-0.345
-0.355
-0.355
-0.370
-0.375
-0.390
-0.425
-0.455
-0.475
-0.500
-0.540
-0.570
-0.510
-0.415
-0.335
-0.260
-0.150
-0.005
0.205
0.470
0.680
0.825
0.925
0.970
0.885
0.690
0.415
0.105
-0.150
-0.345
-0.435
-0.465
-0.455
-0.425
-0.415
-0.395
-0.375
-0.370
-0.395
-0.400
-0.400
-0.410
-0.400
-0.405
-0.400
-0.405
-0.395
-0.390
-0.380
-0.385
-0.405
-0.420
-0.405
-0.400
-0.390
-0.380
-0.395
-0.395
-0.400
-0.390
-0.410
-0.405
-0.410
-0.410
-0.395
-0.385
-0.395
-0.405
-0.420
-0.435
-0.415
-0.405
-0.410
-0.400
-0.410
-0.415
-0.410
-0.400
-0.405
-0.390
-0.390
-0.400
-0.390
-0.390
-0.390
-0.395
-0.420
-0.420
-0.415
-0.410
-0.395
-0.395
-0.400
-0.415
-0.415
-0.400
-0.400
-0.385
-0.390
-0.410
-0.395
-0.390
-0.380
-0.375
-0.390
-0.405
-0.420
-0.415
-0.415
-0.415
-0.435
-0.465
-0.455
-0.465
-0.460
-0.445
-0.455
-0.465
-0.475
-0.455
-0.460
-0.450
-0.455
-0.470
-0.455
-0.440
-0.420
-0.415
-0.420
-0.410
-0.410
-0.370
-0.360
-0.350
-0.350
-0.345
-0.335
-0.320
-0.300
-0.320
-0.315
-0.340
-0.325
-0.300
-0.300
-0.300
-0.310
-0.330
-0.310
-0.305
-0.300
-0.305
-0.315
-0.330
-0.310
-0.305
-0.310
-0.305
-0.310
-0.310
-0.310
-0.300
-0.305
-0.310
-0.310
-0.320
-0.315
-0.330
-0.315
-0.320
-0.340
-0.340
-0.335
-0.330
-0.320
-0.320
-0.325
-0.350
-0.340
-0.335
-0.335
-0.345
-0.350
-0.360
-0.360
-0.345
-0.335
-0.335
-0.335
-0.345
-0.335
-0.335
-0.330
-0.335
-0.335
-0.350
-0.345
-0.355
-0.345
-0.345
-0.355
-0.365
-0.360
-0.355
-0.345
-0.345
-0.345
-0.360
-0.345
-0.340
-0.335
-0.340
-0.345
-0.370
-0.370
-0.360
-0.340
-0.350
-0.365
-0.355
-0.350
-0.340
-0.340
-0.355
-0.355
-0.350
-0.350
-0.335
-0.340
-0.340
-0.330
-0.350
-0.315
-0.300
-0.290
-0.275
-0.280
-0.285
-0.275
-0.270
-0.255
-0.240
-0.250
-0.255
-0.240
-0.225
-0.225
-0.240
-0.255
-0.260
-0.275
-0.260
-0.245
-0.255
-0.265
-0.280
-0.270
-0.250
-0.235
-0.230
-0.245
-0.270
-0.280
-0.280
-0.290
-0.315
-0.335
-0.355
-0.355
-0.355
-0.360
-0.360
-0.375
-0.380
-0.360
-0.355
-0.350
-0.345
-0.370
-0.370
-0.355
-0.355
-0.350
-0.345
-0.355
-0.355
-0.360
-0.355
-0.355
-0.355
-0.360
-0.375
-0.370
-0.390
-0.425
-0.465
-0.490
-0.525
-0.560
-0.560
-0.495
-0.360
-0.220
-0.045
0.190
0.475
0.725
0.895
0.895
0.710
0.350
-0.055
-0.350
-0.480
-0.490
-0.465
-0.415
-0.405
-0.395
-0.405
-0.420
-0.395
-0.415
-0.400
-0.390
-0.385
-0.395
-0.405
-0.395
-0.400
-0.390
-0.390
-0.400
-0.415
-0.405
-0.390
-0.380
-0.380
-0.405
-0.390
-0.400
-0.390
-0.380
-0.380
-0.405
-0.400
-0.410
-0.400
-0.395
-0.400
-0.400
-0.405
-0.390
-0.380
-0.385
-0.385
-0.390
-0.405
-0.400
-0.400
-0.390
-0.390
-0.410
-0.410
-0.405
-0.400
-0.410
-0.405
-0.410
-0.415
-0.410
-0.405
-0.395
-0.405
-0.400
-0.400
-0.395
-0.405
-0.380
-0.385
-0.390
-0.410
-0.395
-0.390
-0.380
-0.385
-0.405
-0.405
-0.405
-0.400
-0.410
-0.410
-0.415
-0.435
-0.430
-0.415
-0.420
-0.420
-0.440
-0.440
-0.435
-0.435
-0.435
-0.430
-0.445
-0.445
-0.420
-0.425
-0.410
-0.405
-0.400
-0.410
-0.380
-0.370
-0.350
-0.340
-0.355
-0.345
-0.340
-0.315
-0.320
-0.300
-0.300
-0.315
-0.305
-0.300
-0.280
-0.290
-0.290
-0.300
-0.295
-0.295
-0.280
-0.285
-0.290
-0.295
-0.285
-0.280
-0.275
-0.265
-0.280
-0.295
-0.280
-0.280
-0.275
-0.290
-0.295
-0.310
-0.290
-0.290
-0.275
-0.270
-0.295
-0.315
-0.310
-0.300
-0.295
-0.290
-0.300
-0.315
-0.305
-0.300
-0.290
-0.310
-0.315
-0.330
-0.310
-0.305
-0.295
-0.295
-0.305
-0.325
-0.315
-0.315
-0.310
-0.300
-0.315
-0.335
-0.325
-0.325
-0.315
-0.310
-0.320
-0.335
-0.325
-0.310
-0.305
-0.305
-0.320
-0.325
-0.315
-0.310
-0.300
-0.315
-0.325
-0.320
-0.320
-0.320
-0.310
-0.310
-0.310
-0.315
-0.305
-0.285
-0.295
-0.305
-0.310
-0.315
-0.300
-0.315
-0.305
-0.305
-0.325
-0.325
-0.315
-0.300
-0.295
-0.310
-0.315
-0.320
-0.315
-0.310
-0.295
-0.285
-0.270
-0.250
-0.245
-0.230
-0.220
-0.225
-0.235
-0.230
-0.220
-0.205
-0.190
-0.190
-0.190
-0.205
-0.205
-0.205
-0.210
-0.215
-0.225
-0.230
-0.225
-0.220
-0.220
-0.240
-0.240
-0.230
-0.205
-0.195
-0.195
-0.220
-0.245
-0.275
-0.260
-0.275
-0.285
-0.300
-0.300
-0.310
-0.310
-0.320
-0.320
-0.325
-0.335
-0.345
-0.335
-0.335
-0.330
-0.335
-0.345
-0.360
-0.345
-0.335
-0.345
-0.345
-0.355
-0.360
-0.355
-0.340
-0.340
-0.350
-0.350
-0.355
-0.355
-0.355
-0.370
-0.425
-0.465
-0.480
-0.500
-0.530
-0.535
-0.485
-0.395
-0.255
-0.095
0.095
0.350
0.630
0.845
0.955
0.975
0.825
0.480
0.055
-0.270
-0.455
-0.485
-0.440
-0.405
-0.375
-0.375
-0.390
-0.380
-0.360
-0.355
-0.345
-0.365
-0.375
-0.370
-0.370
-0.355
-0.370
-0.375
-0.380
-0.385
-0.380
-0.380
-0.380
-0.385
-0.395
-0.395
-0.390
-0.385
-0.380
-0.380
-0.395
-0.390
-0.380
-0.370
-0.375
-0.385
-0.380
-0.375
-0.365
-0.360
-0.365
-0.365
-0.385
-0.370
-0.365
-0.355
-0.385
-0.395
-0.395
-0.385
-0.370
-0.380
-0.370
-0.375
-0.390
-0.385
-0.380
-0.370
-0.370
-0.385
-0.385
-0.380
-0.385
-0.370
-0.375
-0.375
-0.380
-0.380
-0.355
-0.360
-0.365
-0.370
-0.380
-0.370
-0.375
-0.360
-0.370
-0.380
-0.385
-0.375
-0.375
-0.370
-0.370
-0.385
-0.400
-0.395
-0.385
-0.395
-0.380
-0.400
-0.400
-0.400
-0.390
-0.390
-0.385
-0.400
-0.400
-0.385
-0.380
-0.380
-0.385
-0.385
-0.405
-0.395
-0.380
-0.370
-0.370
-0.380
-0.365
-0.355
-0.335
-0.325
-0.320
-0.320
-0.330
-0.315
-0.300
-0.295
-0.285
-0.295
-0.290
-0.285
-0.270
-0.260
-0.265
-0.275
-0.280
-0.275
-0.270
-0.270
-0.260
-0.270
-0.280
-0.285
-0.275
-0.265
-0.270
-0.285
-0.285
-0.285
-0.275
-0.280
-0.275
-0.285
-0.295
-0.295
-0.285
-0.280
-0.270
-0.285
-0.275
-0.290
-0.285
-0.280
-0.290
-0.300
-0.310
-0.310
-0.310
-0.300
-0.300
-0.315
-0.325
-0.315
-0.305
-0.310
-0.310
-0.315
-0.330
-0.325
-0.320
-0.320
-0.315
-0.325
-0.330
-0.335
-0.325
-0.320
-0.320
-0.315
-0.320
-0.310
-0.310
-0.300
-0.305
-0.320
-0.340
-0.335
-0.330
-0.320
-0.330
-0.330
-0.335
-0.340
-0.335
-0.325
-0.340
-0.345
-0.340
-0.340
-0.325
-0.340
-0.335
-0.340
-0.350
-0.340
-0.330
-0.330
-0.325
-0.335
-0.340
-0.335
-0.315
-0.315
-0.310
-0.320
-0.330
-0.320
-0.305
-0.310
-0.305
-0.295
-0.320
-0.305
-0.290
-0.285
-0.285
-0.285
-0.285
-0.265
-0.250
-0.250
-0.250
-0.250
-0.250
-0.250
-0.230
-0.215
-0.225
-0.225
-0.230
-0.230
-0.225
-0.215
-0.215
-0.230
-0.250
-0.240
-0.230
-0.230
-0.240
-0.250
-0.255
-0.220
-0.200
-0.200
-0.225
-0.265
-0.290
-0.290
-0.300
-0.310
-0.325
-0.335
-0.340
-0.350
-0.340
-0.340
-0.345
-0.330
-0.350
-0.345
-0.345
-0.340
-0.350
-0.355
-0.355
-0.355
-0.345
-0.340
-0.340
-0.355
-0.360
-0.360
-0.355
-0.345
-0.345
-0.360
-0.370
-0.375
-0.370
-0.380
-0.420
-0.465
-0.485
-0.515
-0.545
-0.575
-0.545
-0.450
-0.325
-0.195
-0.045
0.165
0.425
0.655
0.810
0.875
0.815
0.590
0.220
-0.150
-0.380
-0.470
-0.465
-0.425
-0.385
-0.375
-0.395
-0.385
-0.375
-0.355
-0.370
-0.360
-0.365
-0.370
-0.370
-0.360
-0.365
-0.375
-0.380
-0.370
-0.370
-0.370
-0.380
-0.385
-0.395
-0.390
-0.380
-0.375
-0.375
-0.395
-0.400
-0.395
-0.370
-0.370
-0.370
-0.365
-0.390
-0.385
-0.375
-0.360
-0.380
-0.390
-0.390
-0.385
-0.375
-0.375
-0.375
-0.380
-0.390
-0.380
-0.365
-0.380
-0.380
-0.385
-0.390
-0.390
-0.380
-0.380
-0.385
-0.395
-0.400
-0.385
-0.380
-0.360
-0.370
-0.375
-0.370
-0.385
-0.370
-0.365
-0.360
-0.365
-0.375
-0.380
-0.365
-0.370
-0.360
-0.370
-0.395
-0.385
-0.385
-0.390
-0.390
-0.390
-0.410
-0.390
-0.380
-0.390
-0.380
-0.395
-0.405
-0.405
-0.395
-0.390
-0.390
-0.410
-0.415
-0.390
-0.380
-0.390
-0.385
-0.390
-0.390
-0.380
-0.360
-0.355
-0.345
-0.340
-0.345
-0.330
-0.320
-0.315
-0.300
-0.305
-0.320
-0.300
-0.275
-0.275
-0.275
-0.275
-0.280
-0.285
-0.275
-0.275
-0.280
-0.295
-0.305
-0.305
-0.300
-0.290
-0.285
-0.295
-0.310
-0.300
-0.300
-0.295
-0.300
-0.305
-0.310
-0.315
-0.305
-0.310
-0.310
-0.315
-0.320
-0.305
-0.290
-0.285
-0.295
-0.300
-0.315
-0.310
-0.315
-0.320
-0.320
-0.330
-0.340
-0.320
-0.310
-0.320
-0.320
-0.330
-0.345
-0.340
-0.330
-0.330
-0.320
-0.330
-0.325
-0.325
-0.320
-0.315
-0.320
-0.330
-0.345
-0.320
-0.315
-0.315
-0.320
-0.325
-0.335
-0.340
-0.330
-0.325
-0.315
-0.335
-0.345
-0.340
-0.325
-0.320
-0.330
-0.345
-0.340
-0.330
-0.340
-0.325
-0.315
-0.310
-0.325
-0.315
-0.330
-0.315
-0.320
-0.325
-0.330
-0.330
-0.315
-0.310
-0.305
-0.310
-0.310
-0.300
-0.285
-0.275
-0.270
-0.270
-0.280
-0.265
-0.255
-0.250
-0.245
-0.250
-0.245
-0.225
-0.215
-0.220
-0.220
-0.230
-0.235
-0.240
-0.240
-0.230
-0.225
-0.240
-0.270
-0.250
-0.255
-0.235
-0.225
-0.215
-0.240
-0.260
-0.275
-0.285
-0.315
-0.320
-0.345
-0.350
-0.350
-0.360
-0.365
-0.355
-0.360
-0.360
-0.360
-0.350
-0.345
-0.355
-0.375
-0.365
-0.350
-0.345
-0.340
-0.335
-0.355
-0.365
-0.350
-0.345
-0.345
-0.355
-0.370
-0.370
-0.365
-0.360
-0.385
-0.415
-0.455
-0.465
-0.460
-0.475
-0.495
-0.555
-0.585
-0.550
-0.460
-0.345
-0.205
-0.040
0.190
0.455
0.680
0.840
0.880
0.725
0.400
0.000
-0.280
-0.435
-0.510
-0.485
-0.460
-0.430
-0.405
-0.410
-0.410
-0.415
-0.405
-0.415
-0.395
-0.390
-0.395
-0.405
-0.410
-0.410
-0.395
-0.390
-0.400
-0.400
-0.395
-0.400
-0.385
-0.385
-0.395
-0.410
-0.420
-0.410
-0.400
-0.390
-0.410
-0.415
-0.425
-0.425
-0.405
-0.400
-0.425
-0.415
-0.415
-0.410
-0.405
-0.400
-0.410
-0.405
-0.415
-0.410
-0.400
-0.395
-0.400
-0.405
-0.405
-0.415
-0.405
-0.400
-0.405
-0.410
-0.420
-0.415
-0.400
-0.395
-0.400
-0.415
-0.420
-0.410
-0.400
-0.395
-0.400
-0.415
-0.410
-0.415
-0.415
-0.405
-0.410
-0.420
-0.440
-0.430
-0.430
-0.425
-0.435
-0.435
-0.440
-0.450
-0.450
-0.450
-0.465
-0.470
-0.485
-0.465
-0.455
-0.450
-0.450
-0.470
-0.485
-0.460
-0.445
-0.435
-0.425
-0.430
-0.430
-0.415
-0.385
-0.365
-0.375
-0.360
-0.360
-0.350
-0.335
-0.335
-0.325
-0.335
-0.335
-0.335
-0.310
-0.310
-0.315
-0.315
-0.320
-0.315
-0.295
-0.295
-0.300
-0.305
-0.330
-0.325
-0.315
-0.325
-0.320
-0.330
-0.335
-0.335
-0.330
-0.305
-0.325
-0.325
-0.325
-0.325
-0.310
-0.305
-0.315
-0.325
-0.330
-0.325
-0.325
-0.340
-0.340
-0.340
-0.345
-0.340
-0.325
-0.330
-0.320
-0.325
-0.340
-0.340
-0.335
-0.340
-0.350
-0.355
-0.360
-0.350
-0.345
-0.345
-0.360
-0.355
-0.370
-0.365
-0.350
-0.360
-0.350
-0.360
-0.370
-0.360
-0.355
-0.345
-0.345
-0.350
-0.350
-0.345
-0.335
-0.330
-0.340
-0.345
-0.350
-0.345
-0.345
-0.340
-0.340
-0.345
-0.360
-0.350
-0.345
-0.335
-0.345
-0.345
-0.355
-0.345
-0.335
-0.325
-0.320
-0.305
-0.305
-0.300
-0.285
-0.280
-0.265
-0.275
-0.270
-0.245
-0.240
-0.230
-0.235
-0.230
-0.245
-0.245
-0.240
-0.250
-0.255
-0.255
-0.270
-0.265
-0.265
-0.265
-0.255
-0.250
-0.235
-0.230
-0.250
-0.260
-0.280
-0.305
-0.340
-0.330
-0.335
-0.330
-0.345
-0.350
-0.360
-0.360
-0.360
-0.365
-0.365
-0.355
-0.365
-0.360
-0.360
-0.360
-0.355
-0.375
-0.375
-0.365
-0.360
-0.370
-0.360
-0.380
-0.390
-0.385
-0.385
-0.365
-0.375
-0.375
-0.400
-0.395
-0.430
-0.460
-0.480
-0.510
-0.570
-0.585
-0.515
-0.385
-0.240
-0.085
0.125
0.405
0.675
0.865
0.935
0.840
0.555
0.140
-0.200
-0.405
-0.485
-0.485
-0.450
-0.385
-0.385
-0.385
-0.390
-0.385
-0.395
-0.390
-0.385
-0.385
-0.390
-0.395
-0.390
-0.390
-0.395
-0.380
-0.385
-0.390
-0.405
-0.400
-0.395
-0.390
-0.390
-0.390
-0.405
-0.375
-0.390
-0.380
-0.390
-0.385
-0.390
-0.385
-0.370
-0.365
-0.365
-0.380
-0.390
-0.390
-0.385
-0.375
-0.380
-0.390
-0.390
-0.395
-0.375
-0.385
-0.385
-0.400
-0.390
-0.385
-0.385
-0.375
-0.380
-0.395
-0.405
-0.385
-0.380
-0.375
-0.380
-0.380
-0.390
-0.390
-0.380
-0.355
-0.355
-0.370
-0.385
-0.375
-0.385
-0.375
-0.390
-0.390
-0.400
-0.400
-0.385
-0.390
-0.390
-0.405
-0.415
-0.405
-0.405
-0.405
-0.410
-0.425
-0.430
-0.420
-0.405
-0.410
-0.410
-0.410
-0.410
-0.400
-0.385
-0.370
-0.375
-0.360
-0.365
-0.355
-0.335
-0.315
-0.315
-0.310
-0.315
-0.295
-0.290
-0.270
-0.285
-0.290
-0.290
-0.280
-0.275
-0.255
-0.270
-0.275
-0.275
-0.280
-0.255
-0.245
-0.260
-0.255
-0.265
-0.260
-0.260
-0.240
-0.250
-0.260
-0.275
-0.265
-0.260
-0.260
-0.285
-0.285
-0.280
-0.285
-0.285
-0.265
-0.280
-0.275
-0.295
-0.295
-0.280
-0.275
-0.280
-0.285
-0.310
-0.305
-0.280
-0.290
-0.285
-0.290
-0.300
-0.310
-0.295
-0.295
-0.290
-0.315
-0.310
-0.310
-0.315
-0.305
-0.310
-0.320
-0.325
-0.310
-0.305
-0.310
-0.305
-0.315
-0.315
-0.305
-0.305
-0.300
-0.300
-0.315
-0.320
-0.305
-0.295
-0.300
-0.305
-0.300
-0.320
-0.310
-0.305
-0.295
-0.300
-0.310
-0.325
-0.315
-0.315
-0.300
-0.300
-0.310
-0.320
-0.315
-0.305
-0.300
-0.300
-0.300
-0.300
-0.285
-0.260
-0.245
-0.240
-0.245
-0.250
-0.240
-0.245
-0.230
-0.220
-0.230
-0.235
-0.230
-0.205
-0.200
-0.195
-0.210
-0.215
-0.205
-0.205
-0.205
-0.210
-0.225
-0.230
-0.225
-0.220
-0.220
-0.215
-0.200
-0.190
-0.190
-0.205
-0.225
-0.250
-0.270
-0.300
-0.305
-0.320
-0.320
-0.325
-0.335
-0.340
-0.335
-0.345
-0.330
-0.330
-0.345
-0.345
-0.350
-0.335
-0.335
-0.335
-0.340
-0.345
-0.340
-0.320
-0.325
-0.325
-0.335
-0.345
-0.350
-0.395
-0.430
-0.460
-0.505
-0.545
-0.575
-0.560
-0.455
-0.330
-0.235
-0.130
0.000
0.160
0.350
0.545
0.700
0.815
0.930
1.035
1.050
0.920
0.570
0.115
-0.245
-0.420
-0.425
-0.390
-0.355
-0.360
-0.365
-0.355
-0.350
-0.360
-0.365
-0.390
-0.385
-0.375
-0.370
-0.370
-0.380
-0.395
-0.385
-0.375
-0.365
-0.370
-0.385
-0.400
-0.385
-0.385
-0.370
-0.375
-0.385
-0.395
-0.390
-0.370
-0.360
-0.360
-0.365
-0.370
-0.370
-0.365
-0.355
-0.360
-0.370
-0.380
-0.380
-0.365
-0.370
-0.365
-0.380
-0.390
-0.380
-0.380
-0.365
-0.365
-0.375
-0.385
-0.385
-0.375
-0.360
-0.355
-0.370
-0.375
-0.370
-0.370
-0.355
-0.365
-0.360
-0.385
-0.385
-0.380
-0.360
-0.365
-0.375
-0.380
-0.370
-0.370
-0.370
-0.360
-0.385
-0.395
-0.380
-0.375
-0.365
-0.375
-0.385
-0.390
-0.375
-0.370
-0.370
-0.370
-0.370
-0.385
-0.380
-0.385
-0.370
-0.370
-0.370
-0.380
-0.370
-0.345
-0.340
-0.325
-0.335
-0.325
-0.305
-0.295
-0.295
-0.300
-0.300
-0.305
-0.295
-0.280
-0.285
-0.275
-0.265
-0.280
-0.275
-0.255
-0.265
-0.260
-0.265
-0.285
-0.285
-0.275
-0.260
-0.265
-0.285
-0.285
-0.290
-0.275
-0.275
-0.265
-0.275
-0.305
-0.290
-0.285
-0.285
-0.275
-0.295
-0.300
-0.280
-0.280
-0.270
-0.280
-0.295
-0.300
-0.310
-0.315
-0.305
-0.305
-0.335
-0.335
-0.320
-0.320
-0.310
-0.320
-0.330
-0.330
-0.330
-0.330
-0.310
-0.315
-0.320
-0.335
-0.330
-0.315
-0.310
-0.315
-0.330
-0.340
-0.335
-0.340
-0.305
-0.320
-0.330
-0.340
-0.335
-0.320
-0.320
-0.330
-0.330
-0.335
-0.325
-0.315
-0.320
-0.315
-0.320
-0.310
-0.310
-0.310
-0.305
-0.300
-0.310
-0.310
-0.300
-0.285
-0.290
-0.275
-0.275
-0.275
-0.270
-0.255
-0.240
-0.245
-0.240
-0.245
-0.245
-0.220
-0.205
-0.190
-0.195
-0.190
-0.200
-0.195
-0.200
-0.210
-0.215
-0.220
-0.210
-0.210
-0.200
-0.210
-0.220
-0.215
-0.220
-0.235
-0.225
-0.225
-0.220
-0.200
-0.205
-0.230
-0.250
-0.260
-0.285
-0.300
-0.315
-0.330
-0.325
-0.335
-0.340
-0.345
-0.330
-0.320
-0.320
-0.325
-0.335
-0.335
-0.335
-0.330
-0.330
-0.335
-0.350
-0.355
-0.350
-0.345
-0.340
-0.350
-0.360
-0.390
-0.400
-0.435
-0.465
-0.480
-0.515
-0.570
-0.580
-0.520
-0.400
-0.250
-0.095
0.100
0.395
0.660
0.830
0.880
0.760
0.460
0.070
-0.240
-0.425
-0.485
-0.480
-0.430
-0.400
-0.395
-0.400
-0.400
-0.395
-0.390
-0.375
-0.365
-0.370
-0.385
-0.395
-0.405
-0.390
-0.390
-0.385
-0.380
-0.395
-0.400
-0.380
-0.380
-0.375
-0.385
-0.395
-0.405
-0.400
-0.395
-0.395
-0.380
-0.395
-0.390
-0.395
-0.400
-0.390
-0.385
-0.390
-0.400
-0.390
-0.380
-0.380
-0.385
-0.380
-0.385
-0.370
-0.375
-0.370
-0.370
-0.375
-0.385
-0.385
-0.375
-0.385
-0.380
-0.400
-0.405
-0.400
-0.385
-0.380
-0.375
-0.395
-0.405
-0.405
-0.395
-0.390
-0.380
-0.385
-0.395
-0.375
-0.375
-0.380
-0.385
-0.375
-0.385
-0.385
-0.375
-0.380
-0.400
-0.405
-0.415
-0.410
-0.415
-0.400
-0.410
-0.410
-0.415
-0.415
-0.415
-0.415
-0.415
-0.425
-0.445
-0.430
-0.420
-0.415
-0.400
-0.410
-0.405
-0.385
-0.375
-0.350
-0.350
-0.350
-0.355
-0.335
-0.330
-0.305
-0.310
-0.325
-0.325
-0.315
-0.315
-0.310
-0.310
-0.305
-0.315
-0.320
-0.310
-0.305
-0.305
-0.305
-0.310
-0.295
-0.295
-0.290
-0.285
-0.285
-0.305
-0.305
-0.295
-0.290
-0.295
-0.295
-0.305
-0.305
-0.300
-0.300
-0.300
-0.320
-0.320
-0.325
-0.320
-0.320
-0.305
-0.325
-0.320
-0.315
-0.320
-0.310
-0.315
-0.310
-0.315
-0.315
-0.315
-0.305
-0.310
-0.315
-0.325
-0.330
-0.330
-0.325
-0.325
-0.330
-0.350
-0.350
-0.330
-0.325
-0.330
-0.350
-0.360
-0.350
-0.340
-0.330
-0.330
-0.330
-0.350
-0.350
-0.340
-0.325
-0.320
-0.330
-0.335
-0.350
-0.340
-0.345
-0.340
-0.330
-0.335
-0.340
-0.320
-0.325
-0.330
-0.350
-0.350
-0.335
-0.320
-0.310
-0.305
-0.295
-0.295
-0.275
-0.270
-0.255
-0.265
-0.250
-0.250
-0.250
-0.225
-0.220
-0.220
-0.230
-0.250
-0.250
-0.250
-0.235
-0.230
-0.245
-0.240
-0.235
-0.235
-0.230
-0.255
-0.260
-0.275
-0.265
-0.255
-0.230
-0.225
-0.240
-0.270
-0.285
-0.295
-0.305
-0.320
-0.355
-0.365
-0.360
-0.365
-0.355
-0.355
-0.360
-0.365
-0.365
-0.355
-0.345
-0.355
-0.370
-0.385
-0.370
-0.350
-0.350
-0.345
-0.360
-0.370
-0.370
-0.360
-0.345
-0.360
-0.365
-0.385
-0.390
-0.405
-0.430
-0.450
-0.470
-0.515
-0.550
-0.565
-0.505
-0.420
-0.295
-0.130
0.080
0.360
0.620
0.835
0.920
0.830
0.545
0.160
-0.180
-0.395
-0.490
-0.515
-0.470
-0.425
-0.410
-0.410
-0.415
-0.410
-0.405
-0.395
-0.395
-0.395
-0.405
-0.410
-0.400
-0.405
-0.395
-0.400
-0.410
-0.420
-0.415
-0.415
-0.405
-0.410
-0.430
-0.445
-0.445
-0.425
-0.415
-0.420
-0.420
-0.425
-0.420
-0.425
-0.410
-0.415
-0.435
-0.440
-0.435
-0.415
-0.415
-0.410
-0.410
-0.420
-0.430
-0.435
-0.425
-0.420
-0.420
-0.425
-0.425
-0.425
-0.420
-0.425
-0.425
-0.425
-0.420
-0.415
-0.415
-0.415
-0.420
-0.430
-0.425
-0.420
-0.415
-0.420
-0.420
-0.430
-0.420
-0.420
-0.410
-0.405
-0.425
-0.435
-0.440
-0.420
-0.415
-0.430
-0.440
-0.450
-0.450
-0.445
-0.445
-0.445
-0.465
-0.475
-0.490
-0.480
-0.475
-0.480
-0.485
-0.490
-0.485
-0.475
-0.455
-0.465
-0.460
-0.470
-0.455
-0.450
-0.435
-0.430
-0.430
-0.420
-0.415
-0.390
-0.385
-0.375
-0.375
-0.375
-0.360
-0.345
-0.335
-0.330
-0.345
-0.340
-0.335
-0.330
-0.325
-0.320
-0.330
-0.335
-0.325
-0.320
-0.310
-0.305
-0.325
-0.330
-0.325
-0.320
-0.305
-0.320
-0.320
-0.340
-0.325
-0.325
-0.330
-0.330
-0.345
-0.355
-0.350
-0.330
-0.325
-0.335
-0.335
-0.360
-0.350
-0.345
-0.355
-0.360
-0.350
-0.370
-0.350
-0.355
-0.350
-0.350
-0.350
-0.365
-0.355
-0.360
-0.350
-0.360
-0.365
-0.375
-0.365
-0.375
-0.365
-0.380
-0.380
-0.395
-0.385
-0.375
-0.370
-0.375
-0.375
-0.385
-0.375
-0.375
-0.360
-0.370
-0.375
-0.380
-0.375
-0.365
-0.360
-0.360
-0.365
-0.380
-0.380
-0.375
-0.355
-0.365
-0.370
-0.385
-0.375
-0.360
-0.365
-0.365
-0.380
-0.380
-0.370
-0.360
-0.360
-0.350
-0.360
-0.365
-0.350
-0.345
-0.335
-0.325
-0.320
-0.330
-0.320
-0.300
-0.300
-0.295
-0.305
-0.295
-0.285
-0.270
-0.270
-0.255
-0.265
-0.270
-0.275
-0.265
-0.275
-0.270
-0.285
-0.295
-0.295
-0.285
-0.275
-0.280
-0.300
-0.290
-0.285
-0.255
-0.240
-0.270
-0.300
-0.340
-0.340
-0.350
-0.360
-0.380
-0.390
-0.405
-0.400
-0.385
-0.385
-0.385
-0.405
-0.410
-0.405
-0.390
-0.400
-0.395
-0.415
-0.415
-0.405
-0.395
-0.390
-0.390
-0.405
-0.415
-0.415
-0.400
-0.405
-0.430
-0.480
-0.525
-0.550
-0.570
-0.595
-0.645
-0.640
-0.570
-0.440
-0.335
-0.250
-0.150
-0.015
0.160
0.410
0.665
0.855
0.955
0.910
0.645
0.215
-0.195
-0.445
-0.540
-0.510
-0.485
-0.435
-0.445
-0.440
-0.440
-0.440
-0.450
-0.455
-0.455
-0.450
-0.455
-0.460
-0.470
-0.465
-0.450
-0.440
-0.450
-0.445
-0.460
-0.460
-0.440
-0.445
-0.445
-0.450
-0.455
-0.450
-0.455
-0.435
-0.455
-0.450
-0.455
-0.455
-0.445
-0.440
-0.435
-0.435
-0.450
-0.445
-0.430
-0.440
-0.450
-0.450
-0.455
-0.460
-0.440
-0.435
-0.445
-0.455
-0.460
-0.455
-0.440
-0.445
-0.440
-0.450
-0.465
-0.450
-0.455
-0.440
-0.440
-0.450
-0.475
-0.455
-0.450
-0.450
-0.440
-0.440
-0.455
-0.440
-0.440
-0.435
-0.440
-0.445
-0.455
-0.450
-0.440
-0.435
-0.450
-0.445
-0.455
-0.450
-0.445
-0.445
-0.455
-0.470
-0.470
-0.480
-0.465
-0.455
-0.455
-0.465
-0.470
-0.470
-0.455
-0.455
-0.460
-0.450
-0.455
-0.445
-0.435
-0.410
-0.420
-0.420
-0.425
-0.410
-0.390
-0.370
-0.370
-0.375
-0.380
-0.360
-0.350
-0.350
-0.335
-0.340
-0.355
-0.355
-0.340
-0.330
-0.345
-0.350
-0.345
-0.345
-0.330
-0.315
-0.325
-0.340
-0.340
-0.340
-0.340
-0.335
-0.345
-0.350
-0.370
-0.350
-0.345
-0.335
-0.355
-0.365
-0.360
-0.365
-0.360
-0.350
-0.355
-0.355
-0.375
-0.375
-0.370
-0.355
-0.355
-0.375
-0.375
-0.385
-0.365
-0.360
-0.365
-0.390
-0.390
-0.385
-0.380
-0.385
-0.390
-0.390
-0.405
-0.390
-0.395
-0.390
-0.395
-0.410
-0.415
-0.415
-0.405
-0.395
-0.405
-0.415
-0.420
-0.410
-0.420
-0.400
-0.400
-0.405
-0.415
-0.420
-0.400
-0.395
-0.385
-0.405
-0.410
-0.410
-0.405
-0.395
-0.405
-0.410
-0.410
-0.415
-0.415
-0.405
-0.395
-0.405
-0.410
-0.410
-0.400
-0.395
-0.395
-0.395
-0.405
-0.390
-0.370
-0.365
-0.355
-0.355
-0.355
-0.350
-0.340
-0.330
-0.325
-0.340
-0.345
-0.345
-0.325
-0.300
-0.305
-0.305
-0.320
-0.300
-0.315
-0.295
-0.305
-0.320
-0.330
-0.320
-0.300
-0.295
-0.310
-0.325
-0.320
-0.300
-0.280
-0.295
-0.330
-0.365
-0.385
-0.390
-0.395
-0.395
-0.410
-0.420
-0.440
-0.430
-0.420
-0.415
-0.410
-0.430
-0.435
-0.430
-0.430
-0.420
-0.420
-0.440
-0.445
-0.430
-0.430
-0.425
-0.430
-0.430
-0.445
-0.440
-0.455
-0.430
-0.440
-0.455
-0.480
-0.510
-0.545
-0.565
-0.580
-0.635
-0.665
-0.630
-0.510
-0.355
-0.200
-0.025
0.240
0.540
0.755
0.845
0.795
0.550
0.120
-0.285
-0.520
-0.585
-0.560
-0.520
-0.500
-0.470
-0.475
-0.470
-0.460
-0.480
-0.485
-0.485
-0.470
-0.465
-0.475
-0.480
-0.490
-0.485
-0.475
-0.470
-0.475
-0.490
-0.495
-0.495
-0.495
-0.480
-0.490
-0.485
-0.495
-0.490
-0.485
-0.480
-0.475
-0.485
-0.490
-0.485
-0.480
-0.475
-0.485
-0.485
-0.510
-0.495
-0.490
-0.485
-0.475
-0.475
-0.495
-0.475
-0.475
-0.475
-0.470
-0.495
-0.495
-0.495
-0.490
-0.470
-0.485
-0.495
-0.505
-0.495
-0.490
-0.490
-0.480
-0.490
-0.500
-0.495
-0.490
-0.475
-0.480
-0.490
-0.500
-0.480
-0.485
-0.475
-0.480
-0.480
-0.480
-0.470
-0.465
-0.460
-0.475
-0.475
-0.480
-0.490
-0.480
-0.470
-0.480
-0.495
-0.505
-0.505
-0.485
-0.485
-0.485
-0.495
-0.505
-0.505
-0.490
-0.485
-0.500
-0.490
-0.500
-0.480
-0.470
-0.445
-0.450
-0.450
-0.450
-0.425
-0.405
-0.385
-0.385
-0.395
-0.390
-0.385
-0.375
-0.370
-0.375
-0.385
-0.390
-0.390
-0.385
-0.370
-0.370
-0.390
-0.385
-0.385
-0.385
-0.375
-0.375
-0.380
-0.390
-0.370
-0.380
-0.365
-0.370
-0.375
-0.390
-0.380
-0.365
-0.365
-0.370
-0.375
-0.395
-0.390
-0.390
-0.380
-0.390
-0.405
-0.415
-0.415
-0.410
-0.395
-0.395
-0.410
-0.420
-0.410
-0.415
-0.400
-0.420
-0.425
-0.430
-0.430
-0.425
-0.410
-0.410
-0.410
-0.425
-0.425
-0.410
-0.410
-0.420
-0.420
-0.445
-0.450
-0.435
-0.430
-0.430
-0.440
-0.450
-0.445
-0.440
-0.420
-0.420
-0.430
-0.445
-0.445
-0.435
-0.425
-0.425
-0.445
-0.450
-0.445
-0.435
-0.425
-0.420
-0.430
-0.430
-0.430
-0.420
-0.405
-0.415
-0.420
-0.425
-0.425
-0.420
-0.425
-0.420
-0.425
-0.440
-0.440
-0.425
-0.420
-0.420
-0.415
-0.425
-0.400
-0.380
-0.365
-0.370
-0.370
-0.365
-0.355
-0.345
-0.330
-0.320
-0.320
-0.330
-0.325
-0.315
-0.315
-0.315
-0.325
-0.340
-0.345
-0.335
-0.325
-0.335
-0.355
-0.380
-0.360
-0.345
-0.305
-0.295
-0.315
-0.335
-0.365
-0.370
-0.375
-0.385
-0.405
-0.430
-0.430
-0.430
-0.430
-0.435
-0.450
-0.460
-0.460
-0.460
-0.455
-0.450
-0.450
-0.465
-0.470
-0.470
-0.460
-0.475
-0.480
-0.490
-0.480
-0.465
-0.465
-0.480
-0.485
-0.495
-0.495
-0.490
-0.490
-0.525
-0.555
-0.600
-0.610
-0.620
-0.655
-0.680
-0.655
-0.575
-0.445
-0.310
-0.130
0.125
0.395
0.600
0.725
0.715
0.530
0.185
-0.195
-0.455
-0.590
-0.615
-0.585
-0.545
-0.535
-0.535
-0.535
-0.525
-0.505
-0.515
-0.505
-0.515
-0.515
-0.490
-0.495
-0.500
-0.490
-0.520
-0.510
-0.520
-0.505
-0.505
-0.505
-0.515
-0.515
-0.500
-0.510
-0.515
-0.525
-0.530
-0.525
-0.535
-0.520
-0.525
-0.520
-0.530
-0.520
-0.520
-0.510
-0.515
-0.510
-0.530
-0.530
-0.520
-0.510
-0.505
-0.525
-0.530
-0.525
-0.510
-0.495
-0.500
-0.510
-0.520
-0.520
-0.515
-0.505
-0.500
-0.510
-0.520
-0.505
-0.515
-0.510
-0.520
-0.505
-0.505
-0.515
-0.525
-0.500
-0.495
-0.495
-0.505
-0.495
-0.490
-0.475
-0.490
-0.495
-0.510
-0.505
-0.500
-0.500
-0.500
-0.505
-0.515
-0.505
-0.505
-0.515
-0.510
-0.525
-0.535
-0.535
-0.540
-0.520
-0.540
-0.540
-0.560
-0.550
-0.540
-0.545
-0.540
-0.545
-0.550
-0.555
-0.530
-0.520
-0.515
-0.500
-0.505
-0.505
-0.485
-0.465
-0.470
-0.460
-0.460
-0.455
-0.435
-0.430
-0.425
-0.430
-0.440
-0.440
-0.435
-0.410
-0.410
-0.415
-0.420
-0.410
-0.400
-0.395
-0.390
-0.405
-0.410
-0.405
-0.390
-0.400
-0.405
-0.415
-0.415
-0.415
-0.410
-0.400
-0.410
-0.410
-0.425
-0.415
-0.395
-0.405
-0.400
-0.415
-0.420
-0.425
-0.410
-0.400
-0.405
-0.420
-0.420
-0.415
-0.410
-0.410
-0.420
-0.425
-0.440
-0.435
-0.430
-0.430
-0.430
-0.430
-0.445
-0.450
-0.435
-0.425
-0.420
-0.425
-0.430
-0.455
-0.450
-0.440
-0.430
-0.440
-0.440
-0.440
-0.430
-0.420
-0.415
-0.425
-0.450
-0.455
-0.450
-0.445
-0.435
-0.435
-0.450
-0.450
-0.445
-0.430
-0.425
-0.450
-0.460
-0.445
-0.440
-0.425
-0.420
-0.445
-0.450
-0.435
-0.425
-0.410
-0.420
-0.440
-0.445
-0.435
-0.430
-0.430
-0.425
-0.430
-0.425
-0.410
-0.410
-0.380
-0.365
-0.370
-0.400
-0.390
-0.370
-0.355
-0.350
-0.360
-0.380
-0.370
-0.355
-0.330
-0.325
-0.325
-0.330
-0.320
-0.320
-0.315
-0.320
-0.340
-0.355
-0.350
-0.340
-0.340
-0.360
-0.370
-0.385
-0.370
-0.340
-0.325
-0.335
-0.380
-0.390
-0.410
-0.420
-0.420
-0.440
-0.450
-0.460
-0.445
-0.455
-0.435
-0.445
-0.450
-0.460
-0.465
-0.460
-0.455
-0.455
-0.465
-0.480
-0.465
-0.455
-0.455
-0.470
-0.470
-0.475
-0.485
-0.470
-0.480
-0.460
-0.480
-0.485
-0.485
-0.495
-0.525
-0.540
-0.570
-0.595
-0.635
-0.670
-0.630
-0.540
-0.415
-0.280
-0.080
0.165
0.435
0.675
0.800
0.830
0.660
0.345
-0.040
-0.350
-0.530
-0.605
-0.625
-0.590
-0.545
-0.520
-0.510
-0.530
-0.515
-0.500
-0.495
-0.495
-0.505
-0.505
-0.505
-0.495
-0.500
-0.500
-0.500
-0.520
-0.505
-0.495
-0.495
-0.500
-0.510
-0.515
-0.510
-0.500
-0.480
-0.500
-0.505
-0.520
-0.515
-0.505
-0.490
-0.510
-0.505
-0.500
-0.505
-0.490
-0.480
-0.490
-0.485
-0.500
-0.500
-0.490
-0.485
-0.495
-0.505
-0.505
-0.510
-0.500
-0.490
-0.490
-0.500
-0.510
-0.515
-0.495
-0.495
-0.490
-0.515
-0.510
-0.505
-0.495
-0.495
-0.485
-0.490
-0.510
-0.495
-0.485
-0.480
-0.480
-0.495
-0.510
-0.520
-0.510
-0.505
-0.515
-0.520
-0.540
-0.540
-0.520
-0.530
-0.535
-0.540
-0.555
-0.555
-0.540
-0.540
-0.545
-0.540
-0.550
-0.540
-0.530
-0.530
-0.525
-0.525
-0.520
-0.510
-0.495
-0.480
-0.465
-0.470
-0.465
-0.455
-0.440
-0.415
-0.415
-0.410
-0.410
-0.390
-0.390
-0.380
-0.380
-0.390
-0.395
-0.385
-0.380
-0.365
-0.375
-0.385
-0.375
-0.380
-0.370
-0.365
-0.370
-0.380
-0.400
-0.395
-0.390
-0.385
-0.395
-0.400
-0.410
-0.410
-0.400
-0.390
-0.395
-0.395
-0.405
-0.405
-0.395
-0.385
-0.400
-0.410
-0.410
-0.410
-0.400
-0.385
-0.395
-0.395
-0.400
-0.405
-0.390
-0.385
-0.405
-0.415
-0.420
-0.415
-0.410
-0.410
-0.405
-0.420
-0.435
-0.430
-0.430
-0.420
-0.410
-0.425
-0.440
-0.445
-0.415
-0.415
-0.420
-0.420
-0.445
-0.425
-0.410
-0.415
-0.420
-0.410
-0.420
-0.405
-0.400
-0.390
-0.390
-0.395
-0.410
-0.405
-0.395
-0.395
-0.395
-0.405
-0.420
-0.420
-0.405
-0.395
-0.390
-0.410
-0.415
-0.415
-0.410
-0.390
-0.390
-0.400
-0.395
-0.395
-0.375
-0.370
-0.345
-0.350
-0.340
-0.330
-0.320
-0.300
-0.305
-0.320
-0.320
-0.310
-0.285
-0.275
-0.280
-0.290
-0.295
-0.305
-0.300
-0.300
-0.310
-0.315
-0.325
-0.305
-0.305
-0.315
-0.315
-0.310
-0.305
-0.275
-0.255
-0.260
-0.295
-0.325
-0.340
-0.350
-0.350
-0.360
-0.375
-0.380
-0.405
-0.400
-0.405
-0.390
-0.405
-0.415
-0.425
-0.420
-0.415
-0.420
-0.410
-0.425
-0.425
-0.430
-0.410
-0.410
-0.400
-0.420
-0.430
-0.425
-0.415
-0.430
-0.450
-0.490
-0.540
-0.550
-0.570
-0.595
-0.605
-0.555
-0.425
-0.255
-0.080
0.160
0.445
0.705
0.885
1.005
1.045
0.975
0.740
0.350
-0.070
-0.405
-0.550
-0.560
-0.535
-0.500
-0.455
-0.455
-0.445
-0.445
-0.440
-0.455
-0.465
-0.465
-0.465
-0.465
-0.465
-0.480
-0.485
-0.480
-0.470
-0.470
-0.460
-0.460
-0.475
-0.475
-0.470
-0.455
-0.455
-0.460
-0.460
-0.460
-0.455
-0.450
-0.450
-0.455
-0.475
-0.465
-0.465
-0.450
-0.450
-0.455
-0.480
-0.470
-0.445
-0.435
-0.440
-0.450
-0.460
-0.460
-0.445
-0.430
-0.425
-0.450
-0.460
-0.455
-0.450
-0.440
-0.445
-0.440
-0.450
-0.445
-0.440
-0.435
-0.450
-0.450
-0.455
-0.455
-0.460
-0.450
-0.435
-0.465
-0.465
-0.450
-0.435
-0.430
-0.435
-0.450
-0.465
-0.465
-0.460
-0.455
-0.455
-0.460
-0.470
-0.470
-0.460
-0.450
-0.455
-0.460
-0.475
-0.460
-0.460
-0.450
-0.450
-0.445
-0.445
-0.435
-0.425
-0.420
-0.415
-0.395
-0.405
-0.385
-0.385
-0.370
-0.360
-0.360
-0.360
-0.355
-0.355
-0.335
-0.335
-0.345
-0.340
-0.335
-0.320
-0.320
-0.325
-0.325
-0.335
-0.330
-0.325
-0.325
-0.335
-0.350
-0.360
-0.365
-0.345
-0.335
-0.350
-0.350
-0.355
-0.360
-0.345
-0.330
-0.330
-0.345
-0.355
-0.355
-0.340
-0.345
-0.350
-0.360
-0.370
-0.375
-0.360
-0.365
-0.360
-0.365
-0.380
-0.375
-0.365
-0.365
-0.365
-0.375
-0.390
-0.385
-0.375
-0.370
-0.370
-0.375
-0.390
-0.380
-0.370
-0.345
-0.360
-0.370
-0.385
-0.375
-0.375
-0.370
-0.370
-0.395
-0.400
-0.385
-0.390
-0.380
-0.385
-0.380
-0.395
-0.390
-0.385
-0.375
-0.375
-0.380
-0.390
-0.380
-0.375
-0.375
-0.365
-0.370
-0.370
-0.355
-0.360
-0.350
-0.335
-0.350
-0.350
-0.340
-0.320
-0.295
-0.295
-0.305
-0.315
-0.300
-0.285
-0.285
-0.285
-0.285
-0.270
-0.275
-0.260
-0.245
-0.250
-0.260
-0.270
-0.280
-0.280
-0.265
-0.265
-0.265
-0.275
-0.270
-0.255
-0.240
-0.230
-0.240
-0.275
-0.310
-0.305
-0.320
-0.330
-0.350
-0.370
-0.375
-0.365
-0.370
-0.370
-0.370
-0.380
-0.385
-0.380
-0.370
-0.360
-0.370
-0.385
-0.375
-0.375
-0.380
-0.380
-0.395
-0.400
-0.400
-0.390
-0.390
-0.390
-0.395
-0.415
-0.425
-0.435
-0.475
-0.500
-0.525
-0.570
-0.605
-0.595
-0.500
-0.360
-0.230
-0.055
0.200
0.500
0.730
0.855
0.835
0.620
0.225
-0.160
-0.415
-0.525
-0.515
-0.470
-0.435
-0.415
-0.415
-0.410
-0.405
-0.415
-0.420
-0.415
-0.400
-0.415
-0.420
-0.430
-0.420
-0.405
-0.410
-0.400
-0.415
-0.430
-0.420
-0.425
-0.405
-0.410
-0.420
-0.435
-0.430
-0.425
-0.415
-0.420
-0.425
-0.435
-0.425
-0.420
-0.410
-0.410
-0.420
-0.425
-0.415
-0.405
-0.400
-0.405
-0.400
-0.410
-0.420
-0.405
-0.395
-0.415
-0.410
-0.430
-0.425
-0.415
-0.415
-0.410
-0.420
-0.430
-0.425
-0.410
-0.410
-0.400
-0.405
-0.415
-0.420
-0.405
-0.400
-0.390
-0.400
-0.400
-0.405
-0.395
-0.390
-0.405
-0.400
-0.430
-0.430
-0.420
-0.415
-0.405
-0.425
-0.435
-0.430
-0.425
-0.415
-0.425
-0.425
-0.440
-0.435
-0.415
-0.415
-0.425
-0.430
-0.435
-0.410
-0.395
-0.385
-0.375
-0.380
-0.385
-0.380
-0.365
-0.345
-0.345
-0.360
-0.365
-0.345
-0.340
-0.325
-0.325
-0.330
-0.340
-0.335
-0.325
-0.310
-0.305
-0.310
-0.335
-0.330
-0.320
-0.315
-0.310
-0.310
-0.315
-0.305
-0.305
-0.295
-0.300
-0.315
-0.330
-0.330
-0.315
-0.305
-0.325
-0.335
-0.335
-0.340
-0.335
-0.320
-0.340
-0.355
-0.350
-0.360
-0.350
-0.340
-0.335
-0.345
-0.360
-0.350
-0.350
-0.345
-0.345
-0.355
-0.365
-0.360
-0.360
-0.355
-0.360
-0.370
-0.375
-0.385
-0.375
-0.370
-0.380
-0.385
-0.385
-0.380
-0.380
-0.370
-0.370
-0.375
-0.370
-0.370
-0.360
-0.360
-0.355
-0.380
-0.400
-0.395
-0.390
-0.380
-0.380
-0.390
-0.385
-0.370
-0.375
-0.365
-0.360
-0.365
-0.380
-0.380
-0.370
-0.375
-0.380
-0.390
-0.395
-0.390
-0.355
-0.350
-0.360
-0.375
-0.385
-0.380
-0.375
-0.350
-0.355
-0.355
-0.355
-0.345
-0.330
-0.315
-0.310
-0.325
-0.315
-0.300
-0.285
-0.265
-0.255
-0.270
-0.265
-0.265
-0.255
-0.255
-0.265
-0.275
-0.290
-0.275
-0.275
-0.285
-0.295
-0.300
-0.290
-0.270
-0.275
-0.295
-0.310
-0.345
-0.365
-0.370
-0.390
-0.385
-0.395
-0.410
-0.415
-0.405
-0.395
-0.400
-0.405
-0.400
-0.405
-0.410
-0.390
-0.395
-0.395
-0.415
-0.430
-0.430
-0.415
-0.410
-0.405
-0.410
-0.410
-0.420
-0.410
-0.415
-0.425
-0.455
-0.500
-0.510
-0.520
-0.520
-0.570
-0.615
-0.655
-0.640
-0.570
-0.475
-0.360
-0.235
-0.040
0.240
0.515
0.710
0.795
0.720
0.435
0.065
-0.250
-0.445
-0.535
-0.550
-0.510
-0.480
-0.450
-0.450
-0.445
-0.440
-0.455
-0.450
-0.450
-0.440
-0.440
-0.445
-0.450
-0.455
-0.445
-0.435
-0.430
-0.440
-0.455
-0.445
-0.445
-0.440
-0.435
-0.460
-0.460
-0.455
-0.465
-0.450
-0.445
-0.470
-0.485
-0.465
-0.460
-0.460
-0.450
-0.450
-0.470
-0.460
-0.455
-0.440
-0.435
-0.445
-0.450
-0.435
-0.440
-0.445
-0.445
-0.450
-0.450
-0.440
-0.435
-0.440
-0.445
-0.455
-0.475
-0.460
-0.450
-0.435
-0.440
-0.445
-0.455
-0.450
-0.435
-0.435
-0.450
-0.450
-0.460
-0.455
-0.440
-0.430
-0.425
-0.435
-0.460
-0.465
-0.445
-0.440
-0.440
-0.470
-0.480
-0.490
-0.480
-0.475
-0.485
-0.490
-0.495
-0.490
-0.490
-0.490
-0.495
-0.495
-0.510
-0.495
-0.495
-0.475
-0.475
-0.465
-0.475
-0.465
-0.430
-0.410
-0.405
-0.395
-0.405
-0.395
-0.370
-0.355
-0.365
-0.370
-0.370
-0.380
-0.370
-0.355
-0.360
-0.370
-0.370
-0.355
-0.340
-0.325
-0.325
-0.340
-0.345
-0.360
-0.345
-0.345
-0.355
-0.355
-0.365
-0.370
-0.365
-0.370
-0.370
-0.375
-0.375
-0.365
-0.360
-0.355
-0.355
-0.355
-0.375
-0.380
-0.385
-0.365
-0.365
-0.375
-0.380
-0.385
-0.385
-0.370
-0.380
-0.400
-0.410
-0.400
-0.385
-0.375
-0.380
-0.390
-0.410
-0.400
-0.395
-0.390
-0.390
-0.390
-0.400
-0.400
-0.390
-0.385
-0.390
-0.395
-0.395
-0.400
-0.400
-0.385
-0.390
-0.400
-0.400
-0.390
-0.380
-0.370
-0.370
-0.380
-0.405
-0.390
-0.390
-0.380
-0.380
-0.380
-0.390
-0.380
-0.380
-0.375
-0.380
-0.390
-0.410
-0.405
-0.395
-0.395
-0.385
-0.405
-0.405
-0.385
-0.370
-0.335
-0.325
-0.325
-0.345
-0.335
-0.325
-0.320
-0.320
-0.310
-0.310
-0.300
-0.290
-0.280
-0.285
-0.295
-0.305
-0.295
-0.290
-0.285
-0.290
-0.300
-0.315
-0.310
-0.310
-0.290
-0.275
-0.280
-0.300
-0.320
-0.340
-0.340
-0.370
-0.395
-0.420
-0.415
-0.425
-0.415
-0.410
-0.420
-0.425
-0.425
-0.430
-0.415
-0.410
-0.425
-0.440
-0.445
-0.435
-0.420
-0.410
-0.420
-0.435
-0.425
-0.425
-0.415
-0.420
-0.430
-0.435
-0.450
-0.470
-0.490
-0.520
-0.535
-0.555
-0.590
-0.615
-0.620
-0.555
-0.445
-0.325
-0.175
0.025
0.265
0.540
0.735
0.850
0.855
0.680
0.325
-0.085
-0.390
-0.520
-0.555
-0.530
-0.490
-0.455
-0.455
-0.465
-0.465
-0.450
-0.440
-0.450
-0.445
-0.465
-0.440
-0.450
-0.435
-0.440
-0.450
-0.460
-0.470
-0.455
-0.455
-0.460
-0.475
-0.485
-0.475
-0.465
-0.455
-0.460
-0.460
-0.460
-0.460
-0.465
-0.450
-0.455
-0.460
-0.480
-0.470
-0.460
-0.465
-0.455
-0.460
-0.470
-0.455
-0.450
-0.455
-0.455
-0.455
-0.470
-0.480
-0.470
-0.455
-0.460
-0.470
-0.480
-0.470
-0.465
-0.455
-0.460
-0.460
-0.465
-0.470
-0.455
-0.445
-0.445
-0.450
-0.455
-0.450
-0.440
-0.425
-0.435
-0.440
-0.450
-0.455
-0.455
-0.450
-0.445
-0.460
-0.460
-0.470
-0.465
-0.460
-0.460
-0.475
-0.490
-0.480
-0.480
-0.475
-0.485
-0.490
-0.500
-0.490
-0.485
-0.490
-0.490
-0.480
-0.500
-0.500
-0.510
-0.480
-0.490
-0.490
-0.485
-0.475
-0.465
-0.445
-0.435
-0.425
-0.425
-0.420
-0.390
-0.380
-0.375
-0.370
-0.370
-0.370
-0.350
-0.335
-0.350
-0.350
-0.355
-0.335
-0.320
-0.320
-0.315
-0.325
-0.335
-0.330
-0.320
-0.320
-0.310
-0.330
-0.350
-0.345
-0.330
-0.330
-0.340
-0.340
-0.355
-0.355
-0.345
-0.335
-0.345
-0.350
-0.360
-0.350
-0.360
-0.350
-0.350
-0.350
-0.365
-0.370
-0.345
-0.330
-0.345
-0.350
-0.355
-0.355
-0.355
-0.340
-0.335
-0.365
-0.385
-0.385
-0.365
-0.365
-0.365
-0.365
-0.385
-0.395
-0.385
-0.375
-0.365
-0.380
-0.390
-0.375
-0.380
-0.365
-0.370
-0.370
-0.380
-0.380
-0.355
-0.365
-0.365
-0.370
-0.380
-0.375
-0.365
-0.365
-0.370
-0.370
-0.390
-0.385
-0.365
-0.360
-0.365
-0.375
-0.385
-0.390
-0.380
-0.370
-0.375
-0.390
-0.385
-0.385
-0.375
-0.370
-0.375
-0.385
-0.405
-0.385
-0.370
-0.370
-0.360
-0.375
-0.370
-0.375
-0.355
-0.340
-0.345
-0.340
-0.345
-0.325
-0.310
-0.305
-0.305
-0.300
-0.305
-0.300
-0.285
-0.265
-0.265
-0.270
-0.280
-0.275
-0.275
-0.265
-0.265
-0.275
-0.295
-0.290
-0.290
-0.270
-0.275
-0.285
-0.300
-0.295
-0.270
-0.240
-0.245
-0.260
-0.295
-0.310
-0.315
-0.325
-0.350
-0.365
-0.385
-0.380
-0.390
-0.370
-0.370
-0.375
-0.380
-0.390
-0.385
-0.390
-0.380
-0.390
-0.400
-0.405
-0.390
-0.385
-0.385
-0.395
-0.415
-0.405
-0.400
-0.385
-0.400
-0.400
-0.420
-0.420
-0.435
-0.450
-0.495
-0.520
-0.550
-0.555
-0.565
-0.580
-0.625
-0.660
-0.610
-0.505
-0.395
-0.240
-0.085
0.115
0.385
0.660
0.865
0.955
0.910
0.660
0.270
-0.140
-0.425
-0.520
-0.515
-0.490
-0.465
-0.445
-0.430
-0.435
-0.435
-0.450
-0.455
-0.450
-0.450
-0.440
-0.445
-0.455
-0.460
-0.460
-0.450
-0.450
-0.445
-0.450
-0.465
-0.455
-0.440
-0.435
-0.435
-0.440
-0.460
-0.455
-0.435
-0.440
-0.455
-0.450
-0.460
-0.460
-0.450
-0.445
-0.440
-0.455
-0.465
-0.455
-0.445
-0.440
-0.435
-0.445
-0.455
-0.440
-0.425
-0.430
-0.430
-0.445
-0.450
-0.430
-0.435
-0.425
-0.430
-0.435
-0.450
-0.450
-0.450
-0.435
-0.450
-0.440
-0.455
-0.445
-0.440
-0.435
-0.450
-0.455
-0.455
-0.440
-0.440
-0.420
-0.420
-0.430
-0.445
-0.445
-0.425
-0.425
-0.420
-0.420
-0.440
-0.435
-0.430
-0.425
-0.435
-0.445
-0.460
-0.455
-0.445
-0.435
-0.435
-0.450
-0.455
-0.455
-0.445
-0.435
-0.450
-0.455
-0.445
-0.455
-0.440
-0.430
-0.415
-0.425
-0.430
-0.410
-0.395
-0.380
-0.365
-0.365
-0.370
-0.370
-0.350
-0.340
-0.335
-0.345
-0.355
-0.345
-0.340
-0.330
-0.340
-0.335
-0.355
-0.340
-0.335
-0.320
-0.325
-0.335
-0.355
-0.330
-0.325
-0.325
-0.325
-0.325
-0.350
-0.335
-0.325
-0.320
-0.325
-0.335
-0.335
-0.340
-0.325
-0.325
-0.330
-0.335
-0.345
-0.355
-0.340
-0.345
-0.340
-0.355
-0.360
-0.365
-0.360
-0.355
-0.355
-0.365
-0.370
-0.365
-0.365
-0.355
-0.355
-0.360
-0.370
-0.370
-0.370
-0.360
-0.365
-0.365
-0.385
-0.385
-0.385
-0.375
-0.380
-0.390
-0.400
-0.400
-0.385
-0.385
-0.385
-0.390
-0.400
-0.405
-0.390
-0.380
-0.380
-0.390
-0.405
-0.395
-0.390
-0.385
-0.380
-0.380
-0.390
-0.375
-0.365
-0.365
-0.375
-0.375
-0.385
-0.385
-0.385
-0.365
-0.375
-0.380
-0.390
-0.385
-0.375
-0.360
-0.370
-0.380
-0.390
-0.390
-0.375
-0.365
-0.375
-0.360
-0.370
-0.355
-0.320
-0.310
-0.300
-0.300
-0.310
-0.310
-0.285
-0.270
-0.255
-0.275
-0.275
-0.270
-0.275
-0.270
-0.280
-0.295
-0.310
-0.305
-0.295
-0.285
-0.285
-0.295
-0.315
-0.315
-0.310
-0.300
-0.290
-0.295
-0.285
-0.265
-0.265
-0.290
-0.305
-0.325
-0.355
-0.365
-0.375
-0.380
-0.385
-0.385
-0.405
-0.400
-0.385
-0.385
-0.395
-0.400
-0.420
-0.410
-0.405
-0.400
-0.405
-0.410
-0.425
-0.420
-0.420
-0.400
-0.405
-0.415
-0.430
-0.430
-0.435
-0.455
-0.495
-0.540
-0.560
-0.590
-0.630
-0.630
-0.565
-0.445
-0.325
-0.190
0.000
0.245
0.520
0.720
0.835
0.855
0.740
0.490
0.125
-0.190
-0.425
-0.535
-0.585
-0.585
-0.550
-0.505
-0.480
-0.460
-0.450
-0.440
-0.440
-0.435
-0.450
-0.450
-0.450
-0.445
-0.435
-0.450
-0.455
-0.460
-0.465
-0.435
-0.445
-0.450
-0.450
-0.460
-0.455
-0.445
-0.445
-0.465
-0.470
-0.450
-0.455
-0.425
-0.430
-0.430
-0.455
-0.440
-0.435
-0.425
-0.435
-0.435
-0.445
-0.450
-0.440
-0.440
-0.435
-0.440
-0.440
-0.445
-0.425
-0.420
-0.415
-0.425
-0.445
-0.450
-0.435
-0.425
-0.430
-0.450
-0.450
-0.440
-0.450
-0.425
-0.435
-0.445
-0.450
-0.445
-0.440
-0.425
-0.430
-0.450
-0.450
-0.445
-0.430
-0.430
-0.435
-0.435
-0.445
-0.445
-0.430
-0.425
-0.430
-0.445
-0.435
-0.430
-0.430
-0.425
-0.420
-0.425
-0.440
-0.440
-0.435
-0.435
-0.435
-0.440
-0.455
-0.455
-0.435
-0.425
-0.430
-0.430
-0.440
-0.430
-0.430
-0.420
-0.420
-0.430
-0.425
-0.415
-0.385
-0.375
-0.365
-0.365
-0.370
-0.355
-0.365
-0.350
-0.340
-0.345
-0.345
-0.350
-0.355
-0.345
-0.335
-0.335
-0.345
-0.345
-0.340
-0.330
-0.335
-0.355
-0.360
-0.360
-0.355
-0.345
-0.340
-0.345
-0.350
-0.355
-0.340
-0.340
-0.340
-0.350
-0.375
-0.360
-0.355
-0.340
-0.345
-0.360
-0.385
-0.375
-0.365
-0.360
-0.365
-0.385
-0.395
-0.395
-0.380
-0.380
-0.375
-0.380
-0.400
-0.395
-0.375
-0.375
-0.385
-0.395
-0.400
-0.410
-0.390
-0.385
-0.380
-0.390
-0.415
-0.410
-0.400
-0.395
-0.385
-0.400
-0.420
-0.425
-0.415
-0.410
-0.410
-0.430
-0.430
-0.430
-0.420
-0.420
-0.415
-0.420
-0.420
-0.415
-0.415
-0.400
-0.390
-0.400
-0.410
-0.415
-0.405
-0.400
-0.400
-0.410
-0.420
-0.420
-0.410
-0.400
-0.415
-0.420
-0.430
-0.425
-0.410
-0.395
-0.380
-0.375
-0.370
-0.355
-0.345
-0.335
-0.335
-0.335
-0.335
-0.310
-0.300
-0.305
-0.295
-0.290
-0.300
-0.300
-0.295
-0.295
-0.305
-0.315
-0.330
-0.325
-0.325
-0.320
-0.315
-0.330
-0.355
-0.345
-0.320
-0.295
-0.305
-0.325
-0.375
-0.380
-0.385
-0.395
-0.405
-0.420
-0.435
-0.430
-0.420
-0.405
-0.400
-0.415
-0.435
-0.440
-0.450
-0.430
-0.440
-0.445
-0.450
-0.455
-0.450
-0.435
-0.440
-0.450
-0.460
-0.445
-0.440
-0.435
-0.430
-0.435
-0.460
-0.490
-0.510
-0.525
-0.550
-0.595
-0.645
-0.645
-0.555
-0.435
-0.305
-0.135
0.105
0.400
0.655
0.795
0.790
0.600
0.230
-0.145
-0.400
-0.520
-0.560
-0.550
-0.505
-0.465
-0.460
-0.455
-0.455
-0.450
-0.465
-0.460
-0.465
-0.470
-0.470
-0.470
-0.490
-0.485
-0.470
-0.465
-0.460
-0.465
-0.470
-0.480
-0.475
-0.465
-0.455
-0.475
-0.480
-0.460
-0.450
-0.440
-0.445
-0.445
-0.460
-0.455
-0.455
-0.465
-0.455
-0.480
-0.465
-0.465
-0.455
-0.455
-0.460
-0.475
-0.480
-0.470
-0.465
-0.455
-0.465
-0.450
-0.455
-0.450
-0.435
-0.430
-0.440
-0.445
-0.455
-0.455
-0.450
-0.440
-0.435
-0.455
-0.465
-0.455
-0.440
-0.440
-0.440
-0.440
-0.460
-0.455
-0.450
-0.430
-0.435
-0.455
-0.475
-0.475
-0.470
-0.460
-0.470
-0.465
-0.485
-0.490
-0.465
-0.460
-0.460
-0.475
-0.490
-0.500
-0.495
-0.485
-0.470
-0.485
-0.500
-0.500
-0.490
-0.475
-0.475
-0.465
-0.480
-0.455
-0.445
-0.425
-0.410
-0.405
-0.420
-0.420
-0.400
-0.375
-0.360
-0.360
-0.375
-0.360
-0.345
-0.325
-0.325
-0.340
-0.345
-0.360
-0.355
-0.355
-0.355
-0.365
-0.360
-0.355
-0.330
-0.335
-0.350
-0.345
-0.360
-0.355
-0.370
-0.340
-0.335
-0.335
-0.345
-0.350
-0.350
-0.340
-0.345
-0.360
-0.365
-0.360
-0.350
-0.350
-0.350
-0.365
-0.380
-0.375
-0.370
-0.370
-0.365
-0.365
-0.375
-0.380
-0.375
-0.370
-0.375
-0.390
-0.410
-0.400
-0.390
-0.365
-0.370
-0.375
-0.390
-0.385
-0.375
-0.365
-0.375
-0.395
-0.405
-0.405
-0.395
-0.390
-0.400
-0.400
-0.400
-0.405
-0.405
-0.390
-0.390
-0.395
-0.400
-0.410
-0.400
-0.385
-0.375
-0.395
-0.395
-0.395
-0.385
-0.380
-0.385
-0.380
-0.380
-0.380
-0.370
-0.380
-0.370
-0.380
-0.385
-0.400
-0.375
-0.365
-0.345
-0.355
-0.350
-0.350
-0.330
-0.315
-0.310
-0.305
-0.315
-0.315
-0.300
-0.275
-0.280
-0.285
-0.290
-0.285
-0.270
-0.270
-0.275
-0.275
-0.285
-0.290
-0.295
-0.285
-0.285
-0.285
-0.300
-0.300
-0.295
-0.290
-0.270
-0.270
-0.285
-0.300
-0.315
-0.320
-0.330
-0.360
-0.390
-0.395
-0.415
-0.395
-0.400
-0.395
-0.405
-0.415
-0.400
-0.405
-0.400
-0.405
-0.405
-0.410
-0.405
-0.400
-0.410
-0.420
-0.430
-0.425
-0.420
-0.405
-0.420
-0.415
-0.435
-0.445
-0.470
-0.500
-0.520
-0.545
-0.595
-0.625
-0.590
-0.490
-0.340
-0.195
-0.015
0.245
0.520
0.745
0.885
0.880
0.680
0.325
-0.080
-0.355
-0.500
-0.550
-0.535
-0.485
-0.455
-0.440
-0.445
-0.440
-0.445
-0.440
-0.430
-0.425
-0.415
-0.435
-0.450
-0.445
-0.430
-0.425
-0.430
-0.440
-0.460
-0.455
-0.460
-0.455
-0.440
-0.450
-0.455
-0.460
-0.450
-0.435
-0.430
-0.440
-0.460
-0.460
-0.450
-0.440
-0.435
-0.435
-0.440
-0.440
-0.425
-0.425
-0.430
-0.435
-0.445
-0.445
-0.440
-0.435
-0.455
-0.440
-0.455
-0.445
-0.450
-0.440
-0.440
-0.445
-0.450
-0.445
-0.435
-0.430
-0.425
-0.430
-0.440
-0.435
-0.425
-0.430
-0.415
-0.435
-0.450
-0.440
-0.430
-0.425
-0.420
-0.435
-0.445
-0.440
-0.435
-0.430
-0.440
-0.455
-0.460
-0.470
-0.455
-0.455
-0.465
-0.470
-0.485
-0.485
-0.475
-0.475
-0.475
-0.470
-0.480
-0.475
-0.475
-0.460
-0.465
-0.470
-0.465
-0.465
-0.450
-0.445
-0.430
-0.435
-0.435
-0.425
-0.400
-0.380
-0.365
-0.365
-0.390
-0.365
-0.365
-0.340
-0.345
-0.330
-0.350
-0.335
-0.320
-0.325
-0.320
-0.315
-0.335
-0.330
-0.320
-0.315
-0.310
-0.315
-0.325
-0.330
-0.315
-0.320
-0.320
-0.320
-0.335
-0.345
-0.330
-0.330
-0.325
-0.335
-0.345
-0.335
-0.325
-0.325
-0.335
-0.335
-0.345
-0.345
-0.345
-0.330
-0.325
-0.340
-0.335
-0.335
-0.325
-0.315
-0.315
-0.335
-0.340
-0.340
-0.330
-0.340
-0.325
-0.335
-0.355
-0.350
-0.340
-0.335
-0.340
-0.340
-0.360
-0.365
-0.355
-0.350
-0.345
-0.345
-0.355
-0.375
-0.345
-0.340
-0.355
-0.350
-0.365
-0.350
-0.355
-0.340
-0.350
-0.350
-0.350
-0.355
-0.330
-0.335
-0.335
-0.340
-0.360
-0.350
-0.340
-0.335
-0.345
-0.345
-0.360
-0.360
-0.355
-0.345
-0.350
-0.375
-0.385
-0.360
-0.355
-0.340
-0.345
-0.350
-0.365
-0.360
-0.345
-0.340
-0.340
-0.340
-0.345
-0.335
-0.325
-0.290
-0.280
-0.285
-0.295
-0.290
-0.275
-0.275
-0.260
-0.250
-0.260
-0.245
-0.230
-0.230
-0.240
-0.240
-0.250
-0.265
-0.250
-0.245
-0.235
-0.250
-0.280
-0.270
-0.240
-0.220
-0.210
-0.235
-0.285
-0.290
-0.315
-0.310
-0.310
-0.340
-0.360
-0.345
-0.345
-0.340
-0.365
-0.355
-0.380
-0.365
-0.355
-0.360
-0.355
-0.360
-0.375
-0.380
-0.370
-0.365
-0.360
-0.360
-0.375
-0.375
-0.375
-0.355
-0.365
-0.365
-0.390
-0.415
-0.430
-0.470
-0.500
-0.525
-0.580
-0.600
-0.560
-0.445
-0.305
-0.160
-0.005
0.230
0.535
0.795
0.985
1.050
0.975
0.715
0.270
-0.145
-0.410
-0.520
-0.500
-0.435
-0.390
-0.390
-0.400
-0.410
-0.420
-0.415
-0.405
-0.410
-0.415
-0.420
-0.435
-0.435
-0.425
-0.420
-0.425
-0.430
-0.435
-0.430
-0.425
-0.410
-0.415
-0.420
-0.430
-0.435
-0.430
-0.425
-0.430
-0.440
-0.440
-0.440
-0.430
-0.420
-0.425
-0.425
-0.435
-0.430
-0.435
-0.430
-0.425
-0.430
-0.435
-0.425
-0.420
-0.420
-0.420
-0.420
-0.440
-0.435
-0.430
-0.425
-0.435
-0.440
-0.445
-0.435
-0.435
-0.425
-0.425
-0.435
-0.445
-0.435
-0.445
-0.420
-0.425
-0.430
-0.440
-0.435
-0.420
-0.420
-0.420
-0.415
-0.430
-0.430
-0.430
-0.415
-0.425
-0.435
-0.450
-0.445
-0.440
-0.435
-0.440
-0.435
-0.445
-0.440
-0.440
-0.425
-0.425
-0.425
-0.430
-0.435
-0.410
-0.395
-0.395
-0.390
-0.385
-0.390
-0.380
-0.355
-0.340
-0.350
-0.345
-0.340
-0.320
-0.310
-0.300
-0.305
-0.330
-0.325
-0.320
-0.320
-0.305
-0.325
-0.325
-0.315
-0.320
-0.315
-0.315
-0.320
-0.330
-0.325
-0.320
-0.315
-0.310
-0.315
-0.330
-0.320
-0.330
-0.320
-0.320
-0.340
-0.350
-0.345
-0.335
-0.335
-0.340
-0.335
-0.345
-0.360
-0.345
-0.335
-0.345
-0.355
-0.370
-0.360
-0.355
-0.345
-0.355
-0.355
-0.365
-0.355
-0.355
-0.350
-0.355
-0.360
-0.380
-0.370
-0.365
-0.360
-0.365
-0.380
-0.380
-0.385
-0.370
-0.365
-0.360
-0.365
-0.375
-0.375
-0.370
-0.360
-0.355
-0.365
-0.370
-0.370
-0.360
-0.355
-0.350
-0.355
-0.375
-0.355
-0.355
-0.340
-0.340
-0.355
-0.365
-0.365
-0.350
-0.350
-0.350
-0.355
-0.365
-0.370
-0.350
-0.345
-0.345
-0.350
-0.360
-0.350
-0.325
-0.320
-0.295
-0.295
-0.310
-0.285
-0.280
-0.265
-0.250
-0.260
-0.265
-0.255
-0.240
-0.225
-0.230
-0.245
-0.265
-0.265
-0.265
-0.270
-0.255
-0.260
-0.275
-0.285
-0.275
-0.260
-0.225
-0.230
-0.250
-0.285
-0.300
-0.285
-0.300
-0.325
-0.345
-0.345
-0.335
-0.325
-0.320
-0.330
-0.350
-0.355
-0.360
-0.355
-0.360
-0.365
-0.375
-0.380
-0.375
-0.370
-0.370
-0.370
-0.395
-0.395
-0.385
-0.390
-0.390
-0.380
-0.390
-0.380
-0.385
-0.370
-0.380
-0.400
-0.425
-0.460
-0.500
-0.505
-0.540
-0.595
-0.615
-0.535
-0.390
-0.225
-0.025
0.235
0.510
0.745
0.850
0.760
0.450
0.020
-0.350
-0.530
-0.525
-0.460
-0.415
-0.395
-0.415
-0.415
-0.410
-0.390
-0.385
-0.400
-0.425
-0.425
-0.415
-0.415
-0.405
-0.425
-0.425
-0.420
-0.420
-0.420
-0.410
-0.420
-0.425
-0.425
-0.410
-0.400
-0.395
-0.400
-0.410
-0.415
-0.405
-0.395
-0.385
-0.405
-0.410
-0.400
-0.405
-0.390
-0.390
-0.390
-0.400
-0.405
-0.395
-0.400
-0.400
-0.400
-0.420
-0.415
-0.400
-0.395
-0.400
-0.410
-0.410
-0.400
-0.400
-0.385
-0.395
-0.405
-0.415
-0.410
-0.405
-0.385
-0.390
-0.395
-0.405
-0.390
-0.385
-0.390
-0.395
-0.410
-0.415
-0.420
-0.405
-0.395
-0.400
-0.415
-0.430
-0.430
-0.420
-0.410
-0.420
-0.435
-0.425
-0.430
-0.425
-0.415
-0.415
-0.425
-0.425
-0.420
-0.405
-0.395
-0.400
-0.405
-0.425
-0.410
-0.395
-0.390
-0.385
-0.380
-0.375
-0.370
-0.355
-0.350
-0.345
-0.350
-0.360
-0.350
-0.330
-0.330
-0.315
-0.340
-0.355
-0.345
-0.330
-0.325
-0.325
-0.325
-0.345
-0.340
-0.325
-0.325
-0.325
-0.340
-0.365
-0.350
-0.350
-0.355
-0.365
-0.380
-0.380
-0.375
-0.360
-0.350
-0.355
-0.375
-0.380
-0.365
-0.375
-0.360
-0.365
-0.370
-0.370
-0.375
-0.365
-0.360
-0.360
-0.375
-0.370
-0.380
-0.380
-0.380
-0.375
-0.405
-0.400
-0.395
-0.385
-0.370
-0.380
-0.385
-0.405
-0.405
-0.395
-0.400
-0.405
-0.410
-0.405
-0.405
-0.400
-0.390
-0.385
-0.395
-0.410
-0.415
-0.400
-0.400
-0.390
-0.395
-0.415
-0.400
-0.400
-0.400
-0.400
-0.400
-0.420
-0.410
-0.415
-0.405
-0.385
-0.390
-0.395
-0.390
-0.375
-0.375
-0.380
-0.390
-0.395
-0.380
-0.380
-0.345
-0.335
-0.345
-0.335
-0.345
-0.325
-0.320
-0.320
-0.335
-0.345
-0.330
-0.310
-0.310
-0.300
-0.310
-0.315
-0.300
-0.290
-0.290
-0.305
-0.305
-0.310
-0.315
-0.305
-0.300
-0.320
-0.320
-0.315
-0.300
-0.285
-0.295
-0.330
-0.345
-0.380
-0.395
-0.400
-0.395
-0.420
-0.435
-0.445
-0.445
-0.440
-0.430
-0.425
-0.435
-0.445
-0.435
-0.425
-0.415
-0.425
-0.440
-0.445
-0.450
-0.435
-0.430
-0.425
-0.425
-0.445
-0.450
-0.445
-0.440
-0.470
-0.505
-0.545
-0.570
-0.595
-0.645
-0.670
-0.640
-0.570
-0.470
-0.370
-0.290
-0.190
-0.070
0.085
0.300
0.515
0.700
0.820
0.840
0.690
0.335
-0.040
-0.335
-0.520
-0.590
-0.580
-0.530
-0.490
-0.475
-0.470
-0.485
-0.490
-0.480
-0.475
-0.470
-0.475
-0.480
-0.500
-0.505
-0.505
-0.485
-0.475
-0.485
-0.500
-0.500
-0.485
-0.470
-0.485
-0.495
-0.495
-0.495
-0.480
-0.480
-0.460
-0.460
-0.470
-0.475
-0.480
-0.475
-0.490
-0.490
-0.505
-0.500
-0.485
-0.480
-0.485
-0.480
-0.500
-0.495
-0.480
-0.475
-0.475
-0.470
-0.490
-0.475
-0.480
-0.470
-0.485
-0.480
-0.490
-0.485
-0.490
-0.490
-0.495
-0.500
-0.515
-0.515
-0.495
-0.485
-0.465
-0.475
-0.490
-0.495
-0.500
-0.495
-0.500
-0.510
-0.505
-0.510
-0.500
-0.505
-0.510
-0.525
-0.545
-0.540
-0.530
-0.530
-0.535
-0.550
-0.560
-0.545
-0.540
-0.535
-0.530
-0.540
-0.545
-0.550
-0.530
-0.525
-0.515
-0.500
-0.510
-0.490
-0.465
-0.455
-0.440
-0.440
-0.450
-0.425
-0.410
-0.400
-0.405
-0.410
-0.405
-0.400
-0.385
-0.385
-0.380
-0.390
-0.405
-0.400
-0.385
-0.380
-0.380
-0.380
-0.400
-0.395
-0.380
-0.365
-0.360
-0.385
-0.400
-0.400
-0.395
-0.380
-0.385
-0.390
-0.395
-0.395
-0.390
-0.380
-0.385
-0.395
-0.405
-0.400
-0.405
-0.395
-0.405
-0.405
-0.420
-0.410
-0.405
-0.400
-0.405
-0.420
-0.435
-0.425
-0.425
-0.410
-0.420
-0.425
-0.430
-0.430
-0.425
-0.400
-0.415
-0.425
-0.430
-0.435
-0.420
-0.415
-0.420
-0.425
-0.430
-0.435
-0.425
-0.425
-0.430
-0.435
-0.445
-0.445
-0.435
-0.425
-0.425
-0.440
-0.445
-0.440
-0.430
-0.425
-0.415
-0.435
-0.440
-0.435
-0.425
-0.420
-0.415
-0.435
-0.430
-0.435
-0.420
-0.415
-0.425
-0.425
-0.430
-0.435
-0.420
-0.420
-0.415
-0.420
-0.435
-0.430
-0.415
-0.390
-0.380
-0.385
-0.385
-0.375
-0.380
-0.350
-0.335
-0.335
-0.330
-0.335
-0.320
-0.305
-0.290
-0.300
-0.325
-0.325
-0.325
-0.320
-0.335
-0.330
-0.345
-0.345
-0.340
-0.345
-0.335
-0.325
-0.325
-0.320
-0.340
-0.345
-0.360
-0.380
-0.410
-0.420
-0.415
-0.410
-0.415
-0.430
-0.435
-0.435
-0.435
-0.435
-0.430
-0.435
-0.450
-0.460
-0.450
-0.435
-0.440
-0.445
-0.455
-0.455
-0.450
-0.450
-0.445
-0.445
-0.470
-0.465
-0.455
-0.445
-0.450
-0.445
-0.460
-0.470
-0.490
-0.520
-0.540
-0.565
-0.610
-0.640
-0.640
-0.565
-0.445
-0.315
-0.160
0.060
0.340
0.600
0.785
0.850
0.740
0.455
0.080
-0.260
-0.485
-0.570
-0.580
-0.555
-0.505
-0.495
-0.475
-0.485
-0.485
-0.490
-0.485
-0.470
-0.475
-0.490
-0.495
-0.500
-0.505
-0.490
-0.495
-0.500
-0.495
-0.495
-0.495
-0.475
-0.475
-0.490
-0.495
-0.490
-0.480
-0.480
-0.480
-0.490
-0.500
-0.500
-0.480
-0.475
-0.485
-0.480
-0.505
-0.485
-0.480
-0.465
-0.480
-0.490
-0.495
-0.490
-0.485
-0.485
-0.475
-0.490
-0.495
-0.500
-0.490
-0.480
-0.485
-0.495
-0.500
-0.485
-0.485
-0.475
-0.480
-0.485
-0.495
-0.500
-0.490
-0.485
-0.485
-0.495
-0.500
-0.495
-0.485
-0.475
-0.470
-0.485
-0.490
-0.480
-0.500
-0.485
-0.475
-0.490
-0.505
-0.495
-0.500
-0.495
-0.500
-0.520
-0.530
-0.525
-0.515
-0.505
-0.515
-0.515
-0.530
-0.525
-0.510
-0.505
-0.505
-0.505
-0.530
-0.520
-0.515
-0.490
-0.490
-0.495
-0.505
-0.490
-0.460
-0.445
-0.430
-0.430
-0.430
-0.405
-0.410
-0.390
-0.400
-0.395
-0.400
-0.390
-0.385
-0.375
-0.375
-0.380
-0.375
-0.375
-0.365
-0.365
-0.365
-0.365
-0.390
-0.375
-0.370
-0.365
-0.365
-0.370
-0.390
-0.380
-0.365
-0.365
-0.370
-0.390
-0.390
-0.390
-0.380
-0.370
-0.380
-0.385
-0.400
-0.395
-0.390
-0.385
-0.390
-0.395
-0.405
-0.410
-0.395
-0.390
-0.400
-0.405
-0.395
-0.405
-0.390
-0.380
-0.380
-0.385
-0.395
-0.395
-0.395
-0.395
-0.390
-0.400
-0.405
-0.400
-0.400
-0.395
-0.395
-0.400
-0.420
-0.405
-0.415
-0.390
-0.405
-0.405
-0.415
-0.415
-0.405
-0.395
-0.395
-0.405
-0.420
-0.410
-0.400
-0.385
-0.385
-0.395
-0.415
-0.410
-0.400
-0.385
-0.390
-0.390
-0.410
-0.410
-0.395
-0.405
-0.395
-0.410
-0.415
-0.410
-0.405
-0.400
-0.395
-0.400
-0.415
-0.410
-0.395
-0.390
-0.395
-0.385
-0.380
-0.365
-0.345
-0.320
-0.315
-0.315
-0.340
-0.340
-0.315
-0.310
-0.310
-0.320
-0.315
-0.315
-0.295
-0.290
-0.290
-0.285
-0.305
-0.305
-0.300
-0.300
-0.310
-0.325
-0.335
-0.325
-0.320
-0.310
-0.315
-0.315
-0.310
-0.280
-0.270
-0.285
-0.315
-0.340
-0.365
-0.365
-0.375
-0.385
-0.390
-0.425
-0.435
-0.425
-0.415
-0.410
-0.405
-0.415
-0.430
-0.430
-0.420
-0.415
-0.410
-0.415
-0.440
-0.430
-0.415
-0.410
-0.420
-0.425
-0.435
-0.430
-0.435
-0.425
-0.440
-0.465
-0.515
-0.550
-0.555
-0.570
-0.605
-0.640
-0.650
-0.595
-0.470
-0.325
-0.180
-0.005
0.230
0.515
0.755
0.885
0.930
0.835
0.565
0.160
-0.200
-0.415
-0.535
-0.560
-0.560
-0.520
-0.485
-0.445
-0.435
-0.440
-0.445
-0.455
-0.455
-0.450
-0.455
-0.470
-0.485
-0.485
-0.480
-0.475
-0.480
-0.480
-0.490
-0.490
-0.490
-0.480
-0.470
-0.480
-0.495
-0.490
-0.480
-0.460
-0.460
-0.455
-0.480
-0.480
-0.460
-0.455
-0.455
-0.460
-0.490
-0.475
-0.475
-0.465
-0.450
-0.465
-0.475
-0.470
-0.465
-0.455
-0.450
-0.455
-0.470
-0.475
-0.455
-0.445
-0.445
-0.450
-0.470
-0.465
-0.455
-0.450
-0.445
-0.460
-0.475
-0.475
-0.465
-0.450
-0.450
-0.475
-0.470
-0.470
-0.470
-0.460
-0.450
-0.470
-0.470
-0.475
-0.465
-0.450
-0.445
-0.465
-0.470
-0.470
-0.455
-0.465
-0.450
-0.460
-0.465
-0.475
-0.460
-0.455
-0.460
-0.470
-0.480
-0.480
-0.475
-0.465
-0.465
-0.475
-0.475
-0.485
-0.470
-0.455
-0.460
-0.465
-0.470
-0.475
-0.450
-0.440
-0.430
-0.430
-0.435
-0.420
-0.395
-0.385
-0.375
-0.370
-0.370
-0.365
-0.355
-0.340
-0.350
-0.360
-0.375
-0.360
-0.350
-0.345
-0.345
-0.360
-0.365
-0.365
-0.355
-0.355
-0.355
-0.360
-0.375
-0.365
-0.365
-0.355
-0.350
-0.360
-0.360
-0.355
-0.355
-0.335
-0.345
-0.350
-0.370
-0.370
-0.370
-0.360
-0.365
-0.380
-0.385
-0.385
-0.365
-0.365
-0.360
-0.365
-0.380
-0.380
-0.370
-0.355
-0.355
-0.365
-0.370
-0.375
-0.365
-0.350
-0.355
-0.380
-0.385
-0.380
-0.365
-0.370
-0.380
-0.375
-0.400
-0.390
-0.390
-0.375
-0.375
-0.390
-0.400
-0.405
-0.395
-0.395
-0.395
-0.400
-0.400
-0.405
-0.390
-0.375
-0.375
-0.390
-0.395
-0.385
-0.385
-0.385
-0.380
-0.380
-0.400
-0.390
-0.390
-0.375
-0.380
-0.390
-0.400
-0.390
-0.390
-0.385
-0.385
-0.390
-0.395
-0.390
-0.390
-0.375
-0.380
-0.375
-0.385
-0.385
-0.380
-0.375
-0.370
-0.380
-0.375
-0.380
-0.365
-0.345
-0.340
-0.350
-0.345
-0.325
-0.315
-0.315
-0.305
-0.315
-0.315
-0.305
-0.290
-0.280
-0.270
-0.270
-0.285
-0.280
-0.280
-0.275
-0.275
-0.290
-0.300
-0.290
-0.285
-0.275
-0.275
-0.290
-0.285
-0.265
-0.250
-0.260
-0.290
-0.315
-0.340
-0.370
-0.375
-0.370
-0.370
-0.390
-0.400
-0.400
-0.390
-0.385
-0.390
-0.405
-0.415
-0.405
-0.405
-0.400
-0.385
-0.395
-0.415
-0.410
-0.400
-0.395
-0.405
-0.420
-0.420
-0.425
-0.415
-0.410
-0.415
-0.440
-0.485
-0.520
-0.540
-0.550
-0.580
-0.630
-0.680
-0.695
-0.670
-0.645
-0.595
-0.525
-0.465
-0.390
-0.330
-0.225
-0.050
0.185
0.440
0.670
0.810
0.825
0.660
0.355
-0.035
-0.350
-0.500
-0.530
-0.505
-0.470
-0.455
-0.450
-0.450
-0.435
-0.430
-0.440
-0.450
-0.455
-0.455
-0.440
-0.435
-0.440
-0.450
-0.450
-0.440
-0.425
-0.425
-0.425
-0.455
-0.455
-0.430
-0.425
-0.440
-0.440
-0.450
-0.445
-0.435
-0.425
-0.420
-0.430
-0.435
-0.430
-0.435
-0.430
-0.430
-0.445
-0.450
-0.450
-0.435
-0.430
-0.425
-0.425
-0.435
-0.435
-0.415
-0.420
-0.430
-0.435
-0.445
-0.445
-0.440
-0.440
-0.440
-0.440
-0.440
-0.450
-0.435
-0.430
-0.425
-0.420
-0.440
-0.445
-0.420
-0.420
-0.420
-0.425
-0.435
-0.425
-0.410
-0.410
-0.420
-0.430
-0.440
-0.435
-0.445
-0.415
-0.430
-0.420
-0.435
-0.435
-0.430
-0.425
-0.425
-0.430
-0.445
-0.440
-0.440
-0.425
-0.440
-0.445
-0.460
-0.460
-0.445
-0.445
-0.435
-0.445
-0.455
-0.460
-0.435
-0.430
-0.435
-0.440
-0.445
-0.440
-0.415
-0.410
-0.390
-0.395
-0.395
-0.395
-0.380
-0.360
-0.365
-0.375
-0.390
-0.385
-0.355
-0.345
-0.345
-0.340
-0.360
-0.360
-0.360
-0.335
-0.340
-0.345
-0.360
-0.360
-0.355
-0.350
-0.350
-0.365
-0.370
-0.380
-0.375
-0.355
-0.360
-0.365
-0.370
-0.365
-0.355
-0.345
-0.350
-0.355
-0.375
-0.380
-0.365
-0.350
-0.355
-0.365
-0.375
-0.370
-0.365
-0.370
-0.370
-0.375
-0.385
-0.390
-0.380
-0.380
-0.375
-0.380
-0.390
-0.395
-0.390
-0.380
-0.375
-0.385
-0.405
-0.390
-0.395
-0.375
-0.390
-0.390
-0.410
-0.405
-0.400
-0.385
-0.390
-0.405
-0.405
-0.400
-0.395
-0.380
-0.380
-0.385
-0.390
-0.390
-0.385
-0.380
-0.395
-0.400
-0.405
-0.415
-0.395
-0.390
-0.390
-0.375
-0.390
-0.390
-0.380
-0.380
-0.385
-0.390
-0.410
-0.400
-0.390
-0.380
-0.385
-0.390
-0.380
-0.360
-0.350
-0.325
-0.330
-0.330
-0.330
-0.345
-0.310
-0.295
-0.285
-0.280
-0.280
-0.275
-0.265
-0.275
-0.270
-0.275
-0.300
-0.295
-0.285
-0.295
-0.300
-0.325
-0.325
-0.305
-0.285
-0.285
-0.310
-0.340
-0.370
-0.380
-0.390
-0.380
-0.380
-0.385
-0.410
-0.405
-0.395
-0.390
-0.390
-0.410
-0.430
-0.415
-0.420
-0.405
-0.405
-0.405
-0.405
-0.410
-0.405
-0.410
-0.415
-0.425
-0.425
-0.415
-0.415
-0.405
-0.405
-0.410
-0.425
-0.435
-0.445
-0.485
-0.520
-0.545
-0.580
-0.615
-0.605
-0.525
-0.380
-0.230
-0.050
0.205
0.500
0.730
0.835
0.755
0.480
0.075
-0.275
-0.470
-0.545
-0.545
-0.505
-0.470
-0.455
-0.440
-0.440
-0.445
-0.445
-0.450
-0.445
-0.450
-0.440
-0.450
-0.460
-0.465
-0.445
-0.445
-0.450
-0.455
-0.465
-0.470
-0.460
-0.450
-0.455
-0.455
-0.465
-0.460
-0.440
-0.435
-0.440
-0.450
-0.455
-0.450
-0.445
-0.445
-0.445
-0.455
-0.455
-0.445
-0.440
-0.440
-0.455
-0.475
-0.465
-0.465
-0.455
-0.440
-0.440
-0.445
-0.445
-0.440
-0.440
-0.435
-0.440
-0.455
-0.465
-0.470
-0.475
-0.450
-0.445
-0.440
-0.450
-0.460
-0.450
-0.435
-0.435
-0.455
-0.460
-0.465
-0.460
-0.450
-0.455
-0.455
-0.465
-0.455
-0.455
-0.445
-0.465
-0.470
-0.480
-0.485
-0.490
-0.485
-0.480
-0.495
-0.515
-0.515
-0.505
-0.485
-0.480
-0.495
-0.505
-0.495
-0.495
-0.475
-0.460
-0.465
-0.465
-0.445
-0.430
-0.410
-0.415
-0.410
-0.410
-0.405
-0.380
-0.365
-0.365
-0.370
-0.370
-0.360
-0.355
-0.345
-0.345
-0.330
-0.345
-0.345
-0.335
-0.340
-0.335
-0.330
-0.345
-0.340
-0.335
-0.320
-0.330
-0.335
-0.350
-0.345
-0.330
-0.320
-0.330
-0.340
-0.345
-0.350
-0.335
-0.325
-0.340
-0.345
-0.360
-0.370
-0.340
-0.330
-0.340
-0.340
-0.355
-0.350
-0.360
-0.340
-0.335
-0.350
-0.360
-0.370
-0.360
-0.355
-0.350
-0.365
-0.375
-0.360
-0.370
-0.360
-0.360
-0.370
-0.380
-0.380
-0.370
-0.350
-0.350
-0.355
-0.360
-0.350
-0.350
-0.340
-0.345
-0.355
-0.365
-0.365
-0.360
-0.350
-0.360
-0.365
-0.375
-0.380
-0.375
-0.360
-0.355
-0.370
-0.380
-0.365
-0.350
-0.355
-0.355
-0.355
-0.370
-0.360
-0.350
-0.335
-0.345
-0.350
-0.355
-0.345
-0.325
-0.310
-0.310
-0.305
-0.305
-0.305
-0.285
-0.275
-0.265
-0.265
-0.260
-0.245
-0.240
-0.225
-0.240
-0.235
-0.245
-0.260
-0.240
-0.230
-0.245
-0.255
-0.250
-0.255
-0.260
-0.260
-0.240
-0.240
-0.245
-0.250
-0.270
-0.285
-0.305
-0.330
-0.345
-0.345
-0.355
-0.355
-0.360
-0.365
-0.365
-0.370
-0.350
-0.350
-0.355
-0.365
-0.375
-0.375
-0.360
-0.355
-0.355
-0.360
-0.380
-0.385
-0.375
-0.370
-0.385
-0.410
-0.445
-0.490
-0.505
-0.525
-0.580
-0.595
-0.545
-0.410
-0.260
-0.085
0.120
0.390
0.635
0.845
0.930
0.860
0.575
0.160
-0.215
-0.455
-0.530
-0.540
-0.535
-0.550
-0.535
-0.510
-0.460
-0.410
-0.410
-0.425
-0.430
-0.430
-0.425
-0.410
-0.410
-0.425
-0.430
-0.425
-0.420
-0.405
-0.410
-0.410
-0.410
-0.420
-0.405
-0.395
-0.395
-0.410
-0.415
-0.420
-0.410
-0.400
-0.410
-0.420
-0.420
-0.425
-0.415
-0.415
-0.405
-0.415
-0.420
-0.430
-0.425
-0.405
-0.410
-0.410
-0.420
-0.415
-0.400
-0.385
-0.395
-0.395
-0.405
-0.405
-0.400
-0.390
-0.395
-0.405
-0.420
-0.420
-0.405
-0.390
-0.400
-0.410
-0.420
-0.425
-0.410
-0.400
-0.395
-0.405
-0.410
-0.420
-0.400
-0.405
-0.405
-0.410
-0.425
-0.415
-0.415
-0.400
-0.405
-0.415
-0.430
-0.420
-0.410
-0.420
-0.425
-0.420
-0.440
-0.430
-0.435
-0.430
-0.430
-0.435
-0.440
-0.430
-0.420
-0.410
-0.410
-0.395
-0.385
-0.380
-0.360
-0.340
-0.330
-0.335
-0.335
-0.330
-0.320
-0.320
-0.320
-0.320
-0.310
-0.315
-0.300
-0.295
-0.295
-0.305
-0.305
-0.305
-0.295
-0.285
-0.300
-0.295
-0.295
-0.300
-0.290
-0.280
-0.295
-0.305
-0.310
-0.320
-0.300
-0.300
-0.310
-0.305
-0.320
-0.325
-0.325
-0.315
-0.305
-0.315
-0.320
-0.330
-0.325
-0.305
-0.325
-0.320
-0.325
-0.335
-0.315
-0.320
-0.320
-0.330
-0.340
-0.345
-0.345
-0.325
-0.325
-0.345
-0.350
-0.350
-0.345
-0.325
-0.330
-0.340
-0.340
-0.335
-0.335
-0.320
-0.325
-0.320
-0.340
-0.335
-0.330
-0.340
-0.335
-0.340
-0.345
-0.355
-0.340
-0.330
-0.340
-0.340
-0.345
-0.350
-0.335
-0.345
-0.335
-0.340
-0.335
-0.345
-0.330
-0.320
-0.325
-0.320
-0.335
-0.350
-0.340
-0.325
-0.320
-0.335
-0.345
-0.330
-0.330
-0.305
-0.305
-0.285
-0.285
-0.275
-0.280
-0.265
-0.260
-0.255
-0.250
-0.245
-0.225
-0.210
-0.190
-0.220
-0.220
-0.230
-0.230
-0.220
-0.235
-0.245
-0.260
-0.250
-0.240
-0.230
-0.230
-0.245
-0.270
-0.285
-0.255
-0.230
-0.215
-0.210
-0.225
-0.260
-0.285
-0.280
-0.305
-0.315
-0.335
-0.345
-0.335
-0.335
-0.340
-0.340
-0.355
-0.355
-0.355
-0.345
-0.365
-0.385
-0.380
-0.385
-0.375
-0.365
-0.370
-0.375
-0.380
-0.380
-0.375
-0.370
-0.375
-0.390
-0.425
-0.455
-0.485
-0.485
-0.520
-0.555
-0.585
-0.530
-0.385
-0.235
-0.095
0.115
0.365
0.635
0.840
0.925
0.860
0.595
0.195
-0.220
-0.445
-0.505
-0.480
-0.435
-0.415
-0.405
-0.390
-0.390
-0.395
-0.400
-0.410
-0.415
-0.400
-0.395
-0.405
-0.405
-0.405
-0.405
-0.395
-0.380
-0.390
-0.405
-0.405
-0.410
-0.405
-0.395
-0.395
-0.405
-0.410
-0.405
-0.405
-0.390
-0.400
-0.405
-0.420
-0.425
-0.405
-0.400
-0.395
-0.395
-0.400
-0.400
-0.400
-0.385
-0.390
-0.395
-0.395
-0.400
-0.385
-0.385
-0.395
-0.395
-0.400
-0.400
-0.395
-0.390
-0.395
-0.400
-0.410
-0.410
-0.405
-0.390
-0.385
-0.395
-0.405
-0.410
-0.400
-0.380
-0.385
-0.390
-0.395
-0.395
-0.385
-0.385
-0.390
-0.400
-0.395
-0.400
-0.390
-0.385
-0.395
-0.405
-0.405
-0.420
-0.410
-0.395
-0.405
-0.410
-0.425
-0.420
-0.425
-0.400
-0.405
-0.405
-0.395
-0.405
-0.395
-0.385
-0.395
-0.400
-0.395
-0.395
-0.380
-0.365
-0.375
-0.370
-0.370
-0.375
-0.355
-0.330
-0.335
-0.345
-0.350
-0.335
-0.320
-0.305
-0.310
-0.315
-0.320
-0.320
-0.310
-0.305
-0.310
-0.295
-0.305
-0.300
-0.290
-0.285
-0.290
-0.295
-0.300
-0.305
-0.310
-0.310
-0.305
-0.300
-0.315
-0.330
-0.320
-0.305
-0.310
-0.320
-0.315
-0.340
-0.320
-0.315
-0.325
-0.330
-0.330
-0.335
-0.315
-0.315
-0.310
-0.320
-0.320
-0.320
-0.330
-0.320
-0.320
-0.330
-0.340
-0.330
-0.335
-0.335
-0.330
-0.340
-0.345
-0.350
-0.345
-0.330
-0.335
-0.345
-0.350
-0.350
-0.350
-0.335
-0.340
-0.340
-0.360
-0.355
-0.360
-0.345
-0.340
-0.350
-0.355
-0.350
-0.345
-0.335
-0.330
-0.345
-0.350
-0.355
-0.350
-0.335
-0.335
-0.335
-0.345
-0.355
-0.355
-0.350
-0.335
-0.340
-0.350
-0.360
-0.345
-0.325
-0.335
-0.345
-0.350
-0.340
-0.325
-0.305
-0.290
-0.265
-0.255
-0.275
-0.260
-0.250
-0.265
-0.265
-0.255
-0.250
-0.250
-0.225
-0.225
-0.240
-0.250
-0.250
-0.250
-0.245
-0.245
-0.250
-0.245
-0.255
-0.250
-0.245
-0.265
-0.265
-0.275
-0.275
-0.245
-0.210
-0.205
-0.235
-0.275
-0.300
-0.290
-0.300
-0.330
-0.345
-0.350
-0.365
-0.355
-0.340
-0.350
-0.360
-0.375
-0.370
-0.370
-0.360
-0.365
-0.375
-0.380
-0.385
-0.360
-0.360
-0.360
-0.360
-0.380
-0.390
-0.395
-0.375
-0.405
-0.450
-0.490
-0.520
-0.545
-0.570
-0.600
-0.565
-0.480
-0.335
-0.170
0.040
0.315
0.570
0.730
0.770
0.655
0.380
0.000
-0.310
-0.485
-0.520
-0.475
-0.420
-0.410
-0.425
-0.425
-0.430
-0.430
-0.410
-0.420
-0.440
-0.435
-0.445
-0.440
-0.425
-0.415
-0.425
-0.440
-0.455
-0.450
-0.430
-0.425
-0.430
-0.445
-0.440
-0.430
-0.415
-0.415
-0.430
-0.440
-0.445
-0.435
-0.415
-0.420
-0.440
-0.435
-0.445
-0.425
-0.420
-0.430
-0.430
-0.440
-0.435
-0.435
-0.425
-0.430
-0.440
-0.440
-0.445
-0.440
-0.425
-0.430
-0.430
-0.435
-0.435
-0.435
-0.430
-0.435
-0.435
-0.430
-0.425
-0.420
-0.405
-0.420
-0.430
-0.435
-0.445
-0.425
-0.410
-0.420
-0.435
-0.440
-0.445
-0.435
-0.430
-0.430
-0.440
-0.460
-0.475
-0.450
-0.440
-0.440
-0.440
-0.475
-0.460
-0.450
-0.440
-0.440
-0.450
-0.460
-0.470
-0.465
-0.450
-0.450
-0.465
-0.455
-0.460
-0.450
-0.435
-0.435
-0.430
-0.435
-0.430
-0.405
-0.405
-0.385
-0.385
-0.385
-0.390
-0.380
-0.370
-0.375
-0.370
-0.360
-0.365
-0.360
-0.345
-0.360
-0.350
-0.350
-0.355
-0.350
-0.350
-0.340
-0.355
-0.375
-0.380
-0.365
-0.350
-0.360
-0.370
-0.370
-0.380
-0.385
-0.370
-0.375
-0.390
-0.400
-0.395
-0.385
-0.360
-0.365
-0.375
-0.375
-0.385
-0.380
-0.385
-0.385
-0.390
-0.395
-0.400
-0.390
-0.380
-0.375
-0.385
-0.395
-0.415
-0.405
-0.390
-0.390
-0.405
-0.410
-0.415
-0.405
-0.400
-0.410
-0.390
-0.400
-0.405
-0.395
-0.395
-0.400
-0.405
-0.410
-0.410
-0.395
-0.395
-0.395
-0.400
-0.415
-0.415
-0.405
-0.390
-0.390
-0.400
-0.395
-0.405
-0.395
-0.395
-0.400
-0.415
-0.420
-0.430
-0.420
-0.415
-0.410
-0.410
-0.415
-0.405
-0.390
-0.375
-0.385
-0.390
-0.390
-0.390
-0.385
-0.380
-0.365
-0.370
-0.370
-0.370
-0.345
-0.335
-0.340
-0.340
-0.340
-0.335
-0.320
-0.305
-0.305
-0.300
-0.310
-0.325
-0.315
-0.310
-0.320
-0.325
-0.315
-0.320
-0.325
-0.320
-0.325
-0.330
-0.320
-0.305
-0.305
-0.320
-0.360
-0.395
-0.390
-0.415
-0.410
-0.405
-0.420
-0.435
-0.445
-0.455
-0.435
-0.425
-0.420
-0.435
-0.430
-0.455
-0.445
-0.430
-0.430
-0.435
-0.455
-0.450
-0.440
-0.430
-0.415
-0.445
-0.465
-0.450
-0.445
-0.450
-0.495
-0.535
-0.555
-0.575
-0.605
-0.640
-0.630
-0.575
-0.460
-0.325
-0.150
0.085
0.350
0.585
0.735
0.770
0.630
0.340
-0.045
-0.360
-0.520
-0.570
-0.555
-0.510
-0.495
-0.490
-0.500
-0.490
-0.475
-0.480
-0.470
-0.480
-0.485
-0.480
-0.485
-0.470
-0.475
-0.470
-0.480
-0.485
-0.460
-0.455
-0.470
-0.470
-0.475
-0.485
-0.465
-0.455
-0.450
-0.460
-0.460
-0.465
-0.470
-0.460
-0.470
-0.485
-0.505
-0.500
-0.485
-0.480
-0.485
-0.480
-0.480
-0.485
-0.475
-0.465
-0.465
-0.470
-0.470
-0.475
-0.470
-0.470
-0.475
-0.475
-0.490
-0.480
-0.485
-0.475
-0.475
-0.490
-0.495
-0.495
-0.485
-0.480
-0.470
-0.490
-0.490
-0.490
-0.485
-0.470
-0.475
-0.485
-0.485
-0.500
-0.480
-0.475
-0.475
-0.480
-0.500
-0.505
-0.495
-0.485
-0.490
-0.520
-0.525
-0.530
-0.525
-0.515
-0.520
-0.540
-0.535
-0.540
-0.535
-0.525
-0.530
-0.530
-0.520
-0.510
-0.500
-0.475
-0.480
-0.475
-0.475
-0.465
-0.450
-0.440
-0.430
-0.420
-0.420
-0.425
-0.400
-0.385
-0.385
-0.385
-0.390
-0.375
-0.375
-0.370
-0.360
-0.370
-0.375
-0.370
-0.355
-0.345
-0.350
-0.350
-0.365
-0.365
-0.360
-0.355
-0.360
-0.370
-0.375
-0.375
-0.375
-0.360
-0.370
-0.380
-0.400
-0.400
-0.390
-0.380
-0.380
-0.375
-0.385
-0.385
-0.375
-0.365
-0.360
-0.370
-0.390
-0.385
-0.380
-0.375
-0.370
-0.390
-0.400
-0.405
-0.395
-0.380
-0.385
-0.390
-0.395
-0.405
-0.390
-0.390
-0.405
-0.400
-0.400
-0.405
-0.400
-0.395
-0.395
-0.405
-0.415
-0.410
-0.410
-0.400
-0.400
-0.400
-0.415
-0.410
-0.400
-0.385
-0.395
-0.400
-0.415
-0.405
-0.400
-0.385
-0.385
-0.390
-0.395
-0.400
-0.390
-0.385
-0.385
-0.395
-0.400
-0.400
-0.395
-0.400
-0.400
-0.410
-0.405
-0.405
-0.390
-0.390
-0.385
-0.385
-0.400
-0.380
-0.380
-0.345
-0.340
-0.330
-0.325
-0.320
-0.315
-0.310
-0.310
-0.310
-0.315
-0.305
-0.275
-0.280
-0.275
-0.270
-0.285
-0.295
-0.295
-0.285
-0.290
-0.310
-0.320
-0.310
-0.300
-0.285
-0.300
-0.315
-0.310
-0.290
-0.275
-0.260
-0.280
-0.320
-0.330
-0.350
-0.350
-0.355
-0.375
-0.385
-0.400
-0.430
-0.415
-0.395
-0.385
-0.405
-0.415
-0.410
-0.410
-0.400
-0.400
-0.410
-0.405
-0.415
-0.400
-0.395
-0.400
-0.405
-0.410
-0.405
-0.395
-0.395
-0.400
-0.405
-0.410
-0.420
-0.420
-0.415
-0.480
-0.520
-0.540
-0.545
-0.550
-0.595
-0.615
-0.590
-0.490
-0.345
-0.190
0.010
0.250
0.515
0.725
0.850
0.875
0.690
0.320
-0.110
-0.405
-0.530
-0.515
-0.455
-0.430
-0.420
-0.420
-0.440
-0.430
-0.430
-0.425
-0.430
-0.445
-0.450
-0.440
-0.420
-0.425
-0.435
-0.430
-0.445
-0.430
-0.415
-0.425
-0.420
-0.440
-0.445
-0.430
-0.420
-0.420
-0.425
-0.430
-0.445
-0.420
-0.405
-0.420
-0.430
-0.440
-0.445
-0.430
-0.415
-0.430
-0.440
-0.440
-0.440
-0.430
-0.430
-0.420
-0.430
-0.440
-0.450
-0.440
-0.420
-0.425
-0.420
-0.430
-0.440
-0.425
-0.420
-0.400
-0.410
-0.420
-0.430
-0.420
-0.405
-0.410
-0.430
-0.440
-0.435
-0.420
-0.415
-0.430
-0.430
-0.435
-0.435
-0.435
-0.425
-0.435
-0.435
-0.440
-0.440
-0.435
-0.425
-0.425
-0.445
-0.440
-0.455
-0.445
-0.440
-0.440
-0.450
-0.435
-0.445
-0.435
-0.430
-0.430
-0.430
-0.440
-0.440
-0.430
-0.420
-0.415
-0.415
-0.410
-0.405
-0.385
-0.370
-0.365
-0.365
-0.365
-0.350
-0.345
-0.325
-0.325
-0.325
-0.340
-0.335
-0.315
-0.300
-0.300
-0.315
-0.300
-0.305
-0.305
-0.295
-0.310
-0.310
-0.315
-0.325
-0.315
-0.300
-0.310
-0.305
-0.320
-0.320
-0.310
-0.310
-0.310
-0.310
-0.320
-0.325
-0.320
-0.300
-0.290
-0.310
-0.320
-0.325
-0.300
-0.300
-0.300
-0.305
-0.325
-0.335
-0.325
-0.310
-0.325
-0.330
-0.330
-0.340
-0.330
-0.315
-0.320
-0.330
-0.340
-0.340
-0.335
-0.325
-0.320
-0.335
-0.335
-0.340
-0.340
-0.325
-0.335
-0.340
-0.350
-0.360
-0.355
-0.335
-0.335
-0.355
-0.355
-0.360
-0.350
-0.350
-0.345
-0.350
-0.360
-0.350
-0.340
-0.335
-0.340
-0.340
-0.345
-0.350
-0.345
-0.325
-0.325
-0.315
-0.340
-0.340
-0.325
-0.330
-0.330
-0.335
-0.335
-0.345
-0.340
-0.330
-0.330
-0.345
-0.350
-0.340
-0.315
-0.305
-0.285
-0.285
-0.280
-0.285
-0.270
-0.245
-0.255
-0.280
-0.285
-0.290
-0.270
-0.255
-0.245
-0.240
-0.260
-0.250
-0.235
-0.230
-0.225
-0.245
-0.245
-0.255
-0.250
-0.255
-0.240
-0.250
-0.255
-0.275
-0.255
-0.240
-0.225
-0.220
-0.230
-0.260
-0.285
-0.290
-0.295
-0.320
-0.345
-0.350
-0.345
-0.340
-0.345
-0.365
-0.370
-0.375
-0.365
-0.365
-0.365
-0.360
-0.370
-0.375
-0.375
-0.375
-0.365
-0.375
-0.375
-0.385
-0.370
-0.360
-0.355
-0.370
-0.375
-0.400
-0.420
-0.445
-0.480
-0.505
-0.540
-0.575
-0.595
-0.585
-0.520
-0.405
-0.285
-0.145
0.050
0.315
0.585
0.770
0.850
0.815
0.600
0.280
-0.100
-0.370
-0.495
-0.500
-0.455
-0.405
-0.390
-0.400
-0.410
-0.410
-0.390
-0.375
-0.385
-0.395
-0.415
-0.410
-0.400
-0.395
-0.385
-0.390
-0.405
-0.410
-0.390
-0.395
-0.390
-0.400
-0.425
-0.410
-0.395
-0.390
-0.400
-0.400
-0.405
-0.410
-0.395
-0.395
-0.390
-0.405
-0.400
-0.395
-0.395
-0.385
-0.390
-0.395
-0.405
-0.400
-0.385
-0.375
-0.385
-0.390
-0.405
-0.400
-0.390
-0.400
-0.405
-0.410
-0.400
-0.415
-0.405
-0.390
-0.385
-0.400
-0.410
-0.410
-0.390
-0.380
-0.370
-0.385
-0.395
-0.390
-0.375
-0.385
-0.390
-0.390
-0.395
-0.410
-0.395
-0.380
-0.400
-0.400
-0.400
-0.410
-0.410
-0.400
-0.410
-0.400
-0.415
-0.425
-0.415
-0.400
-0.405
-0.405
-0.415
-0.420
-0.405
-0.395
-0.390
-0.400
-0.415
-0.400
-0.390
-0.380
-0.375
-0.385
-0.380
-0.385
-0.365
-0.360
-0.345
-0.345
-0.345
-0.340
-0.330
-0.310
-0.310
-0.315
-0.325
-0.320
-0.305
-0.295
-0.295
-0.295
-0.300
-0.310
-0.295
-0.285
-0.285
-0.295
-0.310
-0.305
-0.305
-0.295
-0.290
-0.290
-0.305
-0.305
-0.295
-0.290
-0.305
-0.310
-0.320
-0.325
-0.320
-0.300
-0.315
-0.315
-0.325
-0.325
-0.320
-0.310
-0.315
-0.330
-0.340
-0.335
-0.325
-0.315
-0.320
-0.325
-0.330
-0.340
-0.325
-0.310
-0.315
-0.325
-0.330
-0.335
-0.345
-0.335
-0.335
-0.340
-0.345
-0.345
-0.345
-0.335
-0.335
-0.340
-0.355
-0.345
-0.350
-0.335
-0.330
-0.335
-0.340
-0.350
-0.335
-0.330
-0.335
-0.340
-0.345
-0.355
-0.345
-0.330
-0.335
-0.340
-0.350
-0.360
-0.355
-0.345
-0.340
-0.350
-0.345
-0.355
-0.345
-0.330
-0.325
-0.335
-0.335
-0.345
-0.330
-0.325
-0.325
-0.330
-0.330
-0.310
-0.290
-0.270
-0.265
-0.280
-0.300
-0.295
-0.270
-0.240
-0.235
-0.235
-0.235
-0.235
-0.230
-0.215
-0.220
-0.230
-0.230
-0.255
-0.245
-0.235
-0.240
-0.245
-0.270
-0.275
-0.270
-0.260
-0.245
-0.230
-0.225
-0.225
-0.200
-0.200
-0.230
-0.265
-0.295
-0.305
-0.310
-0.310
-0.320
-0.340
-0.345
-0.360
-0.355
-0.340
-0.340
-0.350
-0.360
-0.360
-0.365
-0.360
-0.375
-0.380
-0.385
-0.380
-0.375
-0.370
-0.375
-0.370
-0.375
-0.385
-0.365
-0.370
-0.385
-0.400
-0.440
-0.460
-0.475
-0.475
-0.520
-0.580
-0.605
-0.545
-0.445
-0.315
-0.180
0.000
0.235
0.495
0.695
0.790
0.760
0.560
0.245
-0.110
-0.360
-0.475
-0.510
-0.490
-0.465
-0.440
-0.435
-0.415
-0.425
-0.415
-0.425
-0.435
-0.395
-0.385
-0.385
-0.400
-0.410
-0.420
-0.410
-0.405
-0.410
-0.400
-0.420
-0.435
-0.420
-0.405
-0.405
-0.415
-0.415
-0.420
-0.420
-0.400
-0.410
-0.415
-0.425
-0.430
-0.415
-0.415
-0.410
-0.415
-0.420
-0.420
-0.415
-0.395
-0.400
-0.405
-0.415
-0.415
-0.420
-0.415
-0.425
-0.425
-0.435
-0.435
-0.425
-0.415
-0.415
-0.420
-0.425
-0.430
-0.420
-0.410
-0.410
-0.410
-0.415
-0.425
-0.405
-0.400
-0.400
-0.410
-0.415
-0.415
-0.405
-0.395
-0.385
-0.395
-0.395
-0.415
-0.395
-0.390
-0.395
-0.405
-0.415
-0.425
-0.415
-0.415
-0.415
-0.425
-0.435
-0.445
-0.445
-0.445
-0.445
-0.440
-0.450
-0.435
-0.430
-0.425
-0.435
-0.445
-0.445
-0.430
-0.425
-0.420
-0.425
-0.415
-0.415
-0.410
-0.405
-0.375
-0.370
-0.365
-0.365
-0.360
-0.345
-0.340
-0.330
-0.335
-0.335
-0.330
-0.330
-0.315
-0.315
-0.315
-0.315
-0.325
-0.320
-0.320
-0.300
-0.320
-0.330
-0.335
-0.320
-0.305
-0.315
-0.325
-0.335
-0.340
-0.340
-0.320
-0.335
-0.335
-0.345
-0.350
-0.330
-0.330
-0.330
-0.335
-0.335
-0.345
-0.345
-0.325
-0.345
-0.330
-0.340
-0.345
-0.340
-0.350
-0.340
-0.340
-0.350
-0.370
-0.355
-0.340
-0.345
-0.350
-0.365
-0.370
-0.370
-0.355
-0.360
-0.355
-0.360
-0.375
-0.370
-0.355
-0.345
-0.355
-0.365
-0.360
-0.360
-0.360
-0.365
-0.375
-0.380
-0.370
-0.360
-0.340
-0.330
-0.340
-0.340
-0.365
-0.355
-0.350
-0.360
-0.370
-0.375
-0.370
-0.365
-0.360
-0.355
-0.360
-0.355
-0.370
-0.355
-0.340
-0.345
-0.355
-0.360
-0.365
-0.355
-0.330
-0.330
-0.320
-0.305
-0.300
-0.275
-0.270
-0.285
-0.295
-0.285
-0.270
-0.260
-0.250
-0.245
-0.245
-0.255
-0.265
-0.250
-0.245
-0.265
-0.265
-0.275
-0.290
-0.285
-0.285
-0.285
-0.290
-0.280
-0.275
-0.285
-0.285
-0.300
-0.330
-0.350
-0.375
-0.360
-0.350
-0.355
-0.360
-0.375
-0.365
-0.360
-0.365
-0.380
-0.380
-0.390
-0.400
-0.390
-0.380
-0.380
-0.380
-0.400
-0.400
-0.390
-0.380
-0.380
-0.380
-0.390
-0.390
-0.385
-0.375
-0.395
-0.430
-0.470
-0.490
-0.505
-0.535
-0.580
-0.590
-0.515
-0.385
-0.225
-0.060
0.155
0.415
0.635
0.775
0.820
0.710
0.375
-0.010
-0.300
-0.460
-0.510
-0.495
-0.455
-0.425
-0.410
-0.430
-0.410
-0.395
-0.390
-0.400
-0.410
-0.425
-0.415
-0.410
-0.410
-0.415
-0.420
-0.425
-0.415
-0.410
-0.410
-0.410
-0.415
-0.430
-0.430
-0.425
-0.420
-0.425
-0.430
-0.435
-0.425
-0.425
-0.425
-0.435
-0.440
-0.435
-0.425
-0.420
-0.420
-0.415
-0.425
-0.430
-0.420
-0.415
-0.430
-0.420
-0.435
-0.435
-0.425
-0.425
-0.430
-0.430
-0.450
-0.440
-0.430
-0.405
-0.420
-0.435
-0.430
-0.435
-0.435
-0.420
-0.425
-0.435
-0.425
-0.420
-0.415
-0.410
-0.410
-0.430
-0.430
-0.440
-0.435
-0.425
-0.430
-0.455
-0.455
-0.470
-0.465
-0.465
-0.465
-0.470
-0.490
-0.485
-0.470
-0.465
-0.465
-0.465
-0.475
-0.475
-0.460
-0.465
-0.465
-0.475
-0.465
-0.475
-0.465
-0.450
-0.440
-0.435
-0.430
-0.415
-0.395
-0.390
-0.385
-0.365
-0.365
-0.360
-0.335
-0.325
-0.330
-0.345
-0.330
-0.325
-0.320
-0.310
-0.315
-0.320
-0.320
-0.335
-0.320
-0.315
-0.310
-0.320
-0.315
-0.320
-0.325
-0.320
-0.320
-0.325
-0.330
-0.335
-0.330
-0.305
-0.315
-0.330
-0.335
-0.340
-0.350
-0.330
-0.325
-0.325
-0.350
-0.350
-0.345
-0.330
-0.320
-0.345
-0.340
-0.350
-0.340
-0.325
-0.330
-0.340
-0.350
-0.360
-0.355
-0.345
-0.350
-0.355
-0.360
-0.370
-0.360
-0.340
-0.345
-0.355
-0.355
-0.355
-0.350
-0.340
-0.345
-0.355
-0.355
-0.355
-0.365
-0.355
-0.355
-0.360
-0.375
-0.365
-0.355
-0.350
-0.350
-0.355
-0.365
-0.370
-0.360
-0.355
-0.355
-0.355
-0.360
-0.360
-0.360
-0.335
-0.335
-0.355
-0.360
-0.365
-0.345
-0.335
-0.345
-0.360
-0.360
-0.360
-0.345
-0.305
-0.295
-0.285
-0.285
-0.285
-0.275
-0.265
-0.260
-0.240
-0.245
-0.255
-0.230
-0.230
-0.245
-0.255
-0.260
-0.255
-0.260
-0.255
-0.255
-0.265
-0.270
-0.280
-0.285
-0.275
-0.245
-0.235
-0.235
-0.270
-0.290
-0.290
-0.310
-0.330
-0.350
-0.355
-0.355
-0.355
-0.360
-0.370
-0.385
-0.385
-0.370
-0.370
-0.370
-0.375
-0.385
-0.395
-0.370
-0.360
-0.365
-0.370
-0.375
-0.375
-0.370
-0.365
-0.370
-0.405
-0.455
-0.500
-0.510
-0.520
-0.570
-0.595
-0.555
-0.445
-0.275
-0.105
0.100
0.360
0.630
0.830
0.985
1.020
0.905
0.655
0.370
0.105
-0.080
-0.220
-0.340
-0.435
-0.510
-0.570
-0.580
-0.520
-0.460
-0.415
-0.415
-0.425
-0.415
-0.405
-0.415
-0.420
-0.435
-0.435
-0.430
-0.420
-0.425
-0.425
-0.435
-0.435
-0.415
-0.405
-0.410
-0.415
-0.410
-0.410
-0.415
-0.400
-0.405
-0.420
-0.430
-0.435
-0.420
-0.405
-0.425
-0.430
-0.430
-0.425
-0.415
-0.410
-0.405
-0.420
-0.425
-0.430
-0.415
-0.405
-0.405
-0.410
-0.420
-0.425
-0.410
-0.400
-0.415
-0.400
-0.410
-0.410
-0.400
-0.390
-0.390
-0.405
-0.410
-0.425
-0.415
-0.405
-0.400
-0.410
-0.425
-0.420
-0.415
-0.405
-0.410
-0.400
-0.420
-0.415
-0.425
-0.405
-0.420
-0.425
-0.430
-0.440
-0.415
-0.420
-0.425
-0.420
-0.440
-0.425
-0.425
-0.425
-0.425
-0.430
-0.435
-0.445
-0.425
-0.415
-0.415
-0.415
-0.410
-0.400
-0.395
-0.370
-0.360
-0.360
-0.345
-0.345
-0.345
-0.330
-0.315
-0.325
-0.330
-0.335
-0.320
-0.305
-0.305
-0.310
-0.325
-0.330
-0.315
-0.320
-0.310
-0.320
-0.315
-0.325
-0.320
-0.310
-0.310
-0.315
-0.315
-0.325
-0.310
-0.305
-0.310
-0.320
-0.325
-0.325
-0.320
-0.315
-0.325
-0.325
-0.340
-0.340
-0.335
-0.335
-0.330
-0.340
-0.350
-0.345
-0.340
-0.335
-0.330
-0.335
-0.345
-0.345
-0.345
-0.335
-0.340
-0.345
-0.355
-0.350
-0.350
-0.340
-0.345
-0.360
-0.365
-0.370
-0.355
-0.355
-0.360
-0.365
-0.370
-0.375
-0.355
-0.350
-0.360
-0.365
-0.365
-0.365
-0.350
-0.345
-0.350
-0.345
-0.365
-0.360
-0.360
-0.355
-0.365
-0.360
-0.360
-0.365
-0.365
-0.350
-0.345
-0.355
-0.355
-0.360
-0.350
-0.335
-0.340
-0.335
-0.335
-0.335
-0.310
-0.290
-0.270
-0.280
-0.295
-0.295
-0.285
-0.270
-0.260
-0.255
-0.255
-0.260
-0.250
-0.255
-0.245
-0.240
-0.250
-0.260
-0.260
-0.255
-0.260
-0.265
-0.270
-0.275
-0.265
-0.260
-0.250
-0.240
-0.230
-0.265
-0.285
-0.295
-0.335
-0.330
-0.350
-0.370
-0.360
-0.355
-0.360
-0.365
-0.375
-0.380
-0.360
-0.360
-0.365
-0.365
-0.375
-0.380
-0.370
-0.380
-0.375
-0.375
-0.390
-0.385
-0.375
-0.380
-0.385
-0.415
-0.470
-0.505
-0.520
-0.535
-0.575
-0.595
-0.530
-0.415
-0.250
-0.065
0.165
0.440
0.670
0.840
0.935
0.990
0.910
0.690
0.380
0.000
-0.305
-0.475
-0.515
-0.505
-0.470
-0.445
-0.415
-0.415
-0.420
-0.420
-0.425
-0.435
-0.415
-0.410
-0.410
-0.415
-0.415
-0.420
-0.410
-0.410
-0.400
-0.410
-0.425
-0.435
-0.420
-0.415
-0.405
-0.410
-0.430
-0.425
-0.425
-0.400
-0.415
-0.410
-0.415
-0.425
-0.415
-0.405
-0.405
-0.410
-0.410
-0.410
-0.410
-0.390
-0.385
-0.390
-0.405
-0.410
-0.395
-0.390
-0.395
-0.405
-0.400
-0.405
-0.410
-0.395
-0.390
-0.395
-0.400
-0.405
-0.400
-0.390
-0.390
-0.405
-0.405
-0.415
-0.400
-0.390
-0.395
-0.400
-0.415
-0.410
-0.390
-0.385
-0.400
-0.400
-0.420
-0.405
-0.400
-0.400
-0.395
-0.400
-0.420
-0.435
-0.415
-0.395
-0.400
-0.420
-0.425
-0.420
-0.415
-0.400
-0.405
-0.415
-0.420
-0.420
-0.405
-0.405
-0.395
-0.395
-0.395
-0.395
-0.385
-0.375
-0.370
-0.355
-0.370
-0.360
-0.345
-0.335
-0.320
-0.335
-0.335
-0.340
-0.325
-0.320
-0.315
-0.325
-0.335
-0.335
-0.315
-0.325
-0.320
-0.330
-0.330
-0.335
-0.330
-0.320
-0.330
-0.320
-0.325
-0.325
-0.330
-0.320
-0.320
-0.325
-0.335
-0.340
-0.330
-0.320
-0.330
-0.355
-0.360
-0.360
-0.355
-0.350
-0.355
-0.350
-0.365
-0.360
-0.370
-0.355
-0.365
-0.365
-0.365
-0.385
-0.375
-0.370
-0.360
-0.365
-0.375
-0.390
-0.385
-0.380
-0.375
-0.385
-0.395
-0.390
-0.395
-0.375
-0.390
-0.385
-0.400
-0.390
-0.380
-0.365
-0.365
-0.375
-0.375
-0.385
-0.385
-0.365
-0.365
-0.375
-0.400
-0.390
-0.380
-0.370
-0.375
-0.385
-0.395
-0.390
-0.390
-0.385
-0.390
-0.385
-0.385
-0.390
-0.390
-0.365
-0.355
-0.365
-0.370
-0.375
-0.375
-0.365
-0.370
-0.355
-0.345
-0.330
-0.320
-0.300
-0.300
-0.320
-0.325
-0.310
-0.305
-0.290
-0.275
-0.275
-0.290
-0.285
-0.275
-0.280
-0.285
-0.300
-0.300
-0.295
-0.275
-0.275
-0.290
-0.300
-0.295
-0.290
-0.265
-0.280
-0.310
-0.335
-0.355
-0.380
-0.395
-0.380
-0.400
-0.410
-0.415
-0.415
-0.405
-0.385
-0.400
-0.405
-0.425
-0.410
-0.395
-0.375
-0.385
-0.395
-0.400
-0.400
-0.390
-0.390
-0.390
-0.400
-0.410
-0.410
-0.410
-0.425
-0.425
-0.420
-0.440
-0.445
-0.455
-0.480
-0.505
-0.530
-0.565
-0.620
-0.630
-0.585
-0.490
-0.370
-0.250
-0.080
0.180
0.455
0.650
0.765
0.735
0.540
0.195
-0.135
-0.385
-0.525
-0.565
-0.530
-0.490
-0.465
-0.455
-0.460
-0.470
-0.465
-0.460
-0.445
-0.435
-0.440
-0.440
-0.450
-0.455
-0.445
-0.455
-0.460
-0.455
-0.460
-0.445
-0.435
-0.440
-0.450
-0.455
-0.450
-0.460
-0.445
-0.450
-0.450
-0.455
-0.470
-0.460
-0.455
-0.445
-0.460
-0.455
-0.455
-0.455
-0.460
-0.465
-0.465
-0.475
-0.465
-0.450
-0.445
-0.445
-0.455
-0.460
-0.455
-0.455
-0.440
-0.440
-0.450
-0.455
-0.460
-0.445
-0.435
-0.445
-0.455
-0.465
-0.485
-0.475
-0.455
-0.445
-0.445
-0.450
-0.455
-0.450
-0.435
-0.445
-0.450
-0.450
-0.460
-0.450
-0.440
-0.445
-0.460
-0.475
-0.475
-0.465
-0.460
-0.470
-0.480
-0.500
-0.500
-0.485
-0.485
-0.485
-0.490
-0.495
-0.505
-0.490
-0.500
-0.505
-0.505
-0.510
-0.515
-0.505
-0.500
-0.495
-0.505
-0.500
-0.500
-0.480
-0.455
-0.425
-0.425
-0.415
-0.405
-0.395
-0.380
-0.385
-0.380
-0.385
-0.395
-0.385
-0.370
-0.355
-0.355
-0.370
-0.370
-0.355
-0.345
-0.340
-0.345
-0.340
-0.345
-0.340
-0.335
-0.350
-0.350
-0.350
-0.355
-0.340
-0.335
-0.345
-0.335
-0.335
-0.335
-0.325
-0.315
-0.320
-0.340
-0.350
-0.350
-0.350
-0.335
-0.350
-0.365
-0.365
-0.370
-0.370
-0.355
-0.355
-0.360
-0.370
-0.370
-0.370
-0.355
-0.355
-0.355
-0.380
-0.370
-0.365
-0.350
-0.350
-0.365
-0.360
-0.375
-0.365
-0.360
-0.360
-0.380
-0.390
-0.385
-0.380
-0.375
-0.375
-0.385
-0.395
-0.405
-0.385
-0.365
-0.380
-0.385
-0.375
-0.375
-0.370
-0.360
-0.360
-0.370
-0.380
-0.380
-0.370
-0.355
-0.365
-0.370
-0.380
-0.380
-0.375
-0.365
-0.370
-0.385
-0.400
-0.390
-0.385
-0.365
-0.365
-0.385
-0.380
-0.385
-0.385
-0.365
-0.360
-0.355
-0.350
-0.350
-0.320
-0.310
-0.300
-0.305
-0.305
-0.305
-0.290
-0.275
-0.285
-0.275
-0.270
-0.270
-0.265
-0.255
-0.265
-0.285
-0.285
-0.300
-0.295
-0.280
-0.275
-0.290
-0.305
-0.310
-0.280
-0.245
-0.250
-0.275
-0.300
-0.325
-0.335
-0.345
-0.360
-0.360
-0.370
-0.385
-0.390
-0.385
-0.385
-0.385
-0.390
-0.400
-0.405
-0.395
-0.385
-0.395
-0.400
-0.410
-0.410
-0.390
-0.395
-0.395
-0.400
-0.400
-0.390
-0.370
-0.370
-0.380
-0.380
-0.395
-0.385
-0.380
-0.400
-0.425
-0.460
-0.495
-0.515
-0.520
-0.560
-0.595
-0.565
-0.465
-0.310
-0.165
0.030
0.295
0.550
0.755
0.860
0.815
0.575
0.205
-0.180
-0.440
-0.525
-0.520
-0.475
-0.440
-0.430
-0.440
-0.430
-0.415
-0.405
-0.420
-0.425
-0.435
-0.425
-0.415
-0.415
-0.420
-0.420
-0.425
-0.415
-0.400
-0.410
-0.400
-0.420
-0.415
-0.415
-0.400
-0.410
-0.410
-0.425
-0.435
-0.420
-0.410
-0.405
-0.420
-0.435
-0.425
-0.415
-0.420
-0.415
-0.410
-0.430
-0.430
-0.420
-0.405
-0.400
-0.410
-0.415
-0.415
-0.405
-0.400
-0.400
-0.410
-0.405
-0.415
-0.400
-0.400
-0.415
-0.420
-0.405
-0.420
-0.415
-0.410
-0.410
-0.420
-0.425
-0.415
-0.415
-0.410
-0.405
-0.410
-0.430
-0.425
-0.410
-0.405
-0.405
-0.410
-0.420
-0.425
-0.425
-0.415
-0.425
-0.430
-0.435
-0.445
-0.440
-0.450
-0.450
-0.460
-0.465
-0.465
-0.460
-0.455
-0.455
-0.450
-0.460
-0.460
-0.445
-0.430
-0.430
-0.445
-0.435
-0.425
-0.400
-0.385
-0.375
-0.375
-0.380
-0.370
-0.350
-0.330
-0.325
-0.325
-0.320
-0.315
-0.315
-0.295
-0.300
-0.295
-0.310
-0.300
-0.290
-0.280
-0.285
-0.285
-0.290
